scanstart [nm]: 4870.000000
slope [nm/V]: 42.182656
k [N/m]: 0.074466
velocity [nm/s]: 100.000000
6:14:42 PM

4838.752892	319.832052	4341.629894	-155.760103
4838.652594	320.843950	4341.729510	-158.795798
4838.552297	324.891543	4341.829126	-157.783899
4838.452002	325.903441	4341.928742	-159.807696
4838.351707	327.927237	4342.028357	-157.783899
4838.251413	330.962932	4342.127972	-158.795798
4838.151120	340.070016	4342.227587	-159.807696
4838.050828	346.141405	4342.327201	-159.807696
4837.950537	346.141405	4342.426815	-155.760103
4837.850247	346.141405	4342.526429	-152.724408
4837.749958	333.998626	4342.626042	-152.724408
4837.649670	317.808256	4342.725655	-150.700612
4837.549383	295.546496	4342.825267	-147.664917
4837.449096	272.272837	4342.924879	-147.664917
4837.348811	254.058670	4343.024490	-144.629222
4837.248527	244.951586	4343.124102	-146.653019
4837.148243	239.892095	4343.223712	-147.664917
4837.047961	239.892095	4343.323323	-147.664917
4836.947679	242.927790	4343.422933	-144.629222
4836.847398	244.951586	4343.522543	-148.676815
4836.747118	241.915892	4343.622152	-150.700612
4836.646840	236.856401	4343.721761	-153.736306
4836.546562	230.785012	4343.821370	-152.724408
4836.446285	222.689826	4343.920978	-155.760103
4836.346009	214.594641	4344.020586	-157.783899
4836.245733	205.487557	4344.120193	-156.772001
4836.145459	197.392371	4344.219800	-156.772001
4836.045186	190.309084	4344.319407	-153.736306
4835.944914	179.178204	4344.419013	-153.736306
4835.844642	161.975935	4344.518619	-152.724408
4835.744372	147.809360	4344.618225	-155.760103
4835.644102	129.595192	4344.717830	-154.748205
4835.543834	117.452414	4344.817435	-155.760103
4835.443566	110.369127	4344.917039	-153.736306
4835.343299	110.369127	4345.016643	-153.736306
4835.243034	114.416719	4345.116247	-153.736306
4835.142769	117.452414	4345.215850	-154.748205
4835.042505	122.511905	4345.315453	-153.736306
4834.942242	122.511905	4345.415055	-152.724408
4834.841980	118.464312	4345.514658	-155.760103
4834.741718	112.392923	4345.614259	-155.760103
4834.641458	102.273941	4345.713861	-155.760103
4834.541199	91.143061	4345.813462	-155.760103
4834.440941	80.012181	4345.913063	-155.760103
4834.340683	68.881300	4346.012663	-152.724408
4834.240427	51.679031	4346.112263	-153.736306
4834.140171	42.571947	4346.211862	-150.700612
4834.039916	30.429169	4346.311462	-149.688714
4833.939662	23.345881	4346.411060	-150.700612
4833.839410	17.274492	4346.510659	-149.688714
4833.739158	20.310187	4346.610257	-151.712510
4833.638907	26.381576	4346.709855	-149.688714
4833.538657	27.393474	4346.809452	-148.676815
4833.438408	27.393474	4346.909049	-148.676815
4833.338159	25.369678	4347.008646	-148.676815
4833.237912	19.298288	4347.108242	-151.712510
4833.137666	10.191205	4347.207838	-153.736306
4833.037420	-3.975370	4347.307433	-154.748205
4832.937176	-21.177640	4347.407028	-155.760103
4832.836932	-36.356113	4347.506623	-158.795798
4832.736689	-46.475095	4347.606217	-155.760103
4832.636448	-55.582179	4347.705811	-153.736306
4832.536207	-58.617874	4347.805405	-150.700612
4832.435967	-61.653569	4347.904998	-151.712510
4832.335728	-63.677365	4348.004591	-153.736306
4832.235490	-66.713060	4348.104184	-151.712510
4832.135252	-73.796347	4348.203776	-155.760103
4832.035016	-75.820144	4348.303367	-153.736306
4831.934781	-83.915329	4348.402959	-153.736306
4831.834546	-85.939126	4348.502550	-152.724408
4831.734313	-84.927227	4348.602141	-149.688714
4831.634080	-85.939126	4348.701731	-149.688714
4831.533849	-90.998617	4348.801321	-147.664917
4831.433618	-97.070006	4348.900910	-149.688714
4831.333388	-107.188988	4349.000500	-150.700612
4831.233159	-120.343665	4349.100088	-149.688714
4831.132931	-130.462647	4349.199677	-150.700612
4831.032704	-139.569731	4349.299265	-149.688714
4830.932478	-144.629222	4349.398853	-149.688714
4830.832253	-144.629222	4349.498440	-149.688714
4830.732028	-145.641121	4349.598027	-149.688714
4830.631805	-144.629222	4349.697614	-148.676815
4830.531582	-149.688714	4349.797200	-146.653019
4830.431361	-149.688714	4349.896786	-145.641121
4830.331140	-152.724408	4349.996372	-144.629222
4830.230920	-151.712510	4350.095957	-144.629222
4830.130701	-147.664917	4350.195542	-143.617324
4830.030483	-142.605426	4350.295126	-143.617324
4829.930266	-135.522138	4350.394710	-143.617324
4829.830050	-132.486444	4350.494294	-143.617324
4829.729835	-132.486444	4350.593877	-146.653019
4829.629621	-134.510240	4350.693460	-147.664917
4829.529407	-137.545935	4350.793043	-148.676815
4829.429195	-139.569731	4350.892625	-149.688714
4829.328983	-141.593528	4350.992207	-149.688714
4829.228772	-142.605426	4351.091789	-148.676815
4829.128563	-142.605426	4351.191370	-148.676815
4829.028354	-142.605426	4351.290951	-147.664917
4828.928146	-142.605426	4351.390531	-148.676815
4828.827939	-137.545935	4351.490111	-146.653019
4828.727733	-136.534037	4351.589691	-144.629222
4828.627527	-131.474546	4351.689270	-143.617324
4828.527323	-125.403156	4351.788849	-142.605426
4828.427120	-122.367462	4351.888428	-143.617324
4828.326917	-117.307970	4351.988006	-142.605426
4828.226715	-118.319869	4352.087584	-142.605426
4828.126515	-117.307970	4352.187162	-145.641121
4828.026315	-118.319869	4352.286739	-146.653019
4827.926116	-118.319869	4352.386316	-149.688714
4827.825918	-122.367462	4352.485892	-147.664917
4827.725721	-123.379360	4352.585468	-148.676815
4827.625525	-130.462647	4352.685044	-147.664917
4827.525330	-135.522138	4352.784619	-147.664917
4827.425135	-141.593528	4352.884194	-148.676815
4827.324942	-143.617324	4352.983769	-148.676815
4827.224749	-143.617324	4353.083344	-149.688714
4827.124557	-143.617324	4353.182917	-148.676815
4827.024367	-140.581630	4353.282491	-149.688714
4826.924177	-136.534037	4353.382064	-150.700612
4826.823988	-130.462647	4353.481637	-150.700612
4826.723800	-128.438851	4353.581210	-150.700612
4826.623613	-124.391258	4353.680782	-152.724408
4826.523426	-124.391258	4353.780354	-152.724408
4826.423241	-127.426953	4353.879925	-152.724408
4826.323056	-129.450749	4353.979496	-150.700612
4826.222873	-132.486444	4354.079067	-149.688714
4826.122690	-137.545935	4354.178638	-150.700612
4826.022508	-137.545935	4354.278208	-151.712510
4825.922327	-135.522138	4354.377777	-151.712510
4825.822148	-137.545935	4354.477347	-151.712510
4825.721968	-139.569731	4354.576916	-152.724408
4825.621790	-142.605426	4354.676484	-153.736306
4825.521613	-147.664917	4354.776052	-151.712510
4825.421437	-147.664917	4354.875620	-152.724408
4825.321261	-147.664917	4354.975188	-151.712510
4825.221086	-146.653019	4355.074755	-149.688714
4825.120913	-144.629222	4355.174322	-151.712510
4825.020740	-140.581630	4355.273888	-152.724408
4824.920568	-139.569731	4355.373455	-152.724408
4824.820397	-136.534037	4355.473020	-151.712510
4824.720227	-135.522138	4355.572586	-150.700612
4824.620058	-134.510240	4355.672151	-148.676815
4824.519889	-135.522138	4355.771715	-145.641121
4824.419722	-140.581630	4355.871280	-144.629222
4824.319555	-148.676815	4355.970844	-147.664917
4824.219390	-156.772001	4356.070408	-147.664917
4824.119225	-166.890983	4356.169971	-147.664917
4824.019061	-171.950475	4356.269534	-148.676815
4823.918898	-173.974271	4356.369096	-148.676815
4823.818736	-177.009966	4356.468659	-150.700612
4823.718575	-169.926678	4356.568221	-152.724408
4823.618414	-162.843391	4356.667782	-151.712510
4823.518255	-156.772001	4356.767343	-149.688714
4823.418096	-146.653019	4356.866904	-150.700612
4823.317939	-142.605426	4356.966465	-147.664917
4823.217782	-141.593528	4357.066025	-149.688714
4823.117626	-144.629222	4357.165585	-150.700612
4823.017471	-146.653019	4357.265144	-151.712510
4822.917317	-151.712510	4357.364703	-151.712510
4822.817164	-152.724408	4357.464262	-153.736306
4822.717011	-154.748205	4357.563820	-152.724408
4822.616860	-152.724408	4357.663378	-148.676815
4822.516709	-150.700612	4357.762936	-150.700612
4822.416560	-151.712510	4357.862493	-151.712510
4822.316411	-153.736306	4357.962050	-150.700612
4822.216263	-153.736306	4358.061607	-152.724408
4822.116116	-161.831492	4358.161163	-155.760103
4822.015970	-165.879085	4358.260719	-156.772001
4821.915825	-167.902882	4358.360275	-156.772001
4821.815680	-168.914780	4358.459830	-154.748205
4821.715537	-167.902882	4358.559385	-153.736306
4821.615394	-166.890983	4358.658939	-149.688714
4821.515252	-164.867187	4358.758494	-151.712510
4821.415112	-163.855289	4358.858048	-150.700612
4821.314972	-165.879085	4358.957601	-149.688714
4821.214833	-167.902882	4359.057154	-151.712510
4821.114694	-169.926678	4359.156707	-151.712510
4821.014557	-169.926678	4359.256260	-148.676815
4820.914421	-171.950475	4359.355812	-149.688714
4820.814285	-170.938576	4359.455363	-148.676815
4820.714151	-172.962373	4359.554915	-147.664917
4820.614017	-172.962373	4359.654466	-146.653019
4820.513884	-175.998067	4359.754017	-145.641121
4820.413752	-179.033762	4359.853567	-149.688714
4820.313621	-183.081355	4359.953117	-148.676815
4820.213490	-187.128948	4360.052667	-149.688714
4820.113361	-187.128948	4360.152216	-149.688714
4820.013233	-184.093253	4360.251765	-149.688714
4819.913105	-184.093253	4360.351314	-148.676815
4819.812978	-182.069457	4360.450862	-148.676815
4819.712852	-181.057559	4360.550410	-147.664917
4819.612727	-182.069457	4360.649958	-147.664917
4819.512603	-185.105151	4360.749505	-147.664917
4819.412480	-188.140846	4360.849052	-148.676815
4819.312358	-194.212236	4360.948599	-150.700612
4819.212236	-198.259828	4361.048145	-150.700612
4819.112115	-202.307421	4361.147691	-152.724408
4819.011996	-205.343116	4361.247237	-153.736306
4818.911877	-203.319320	4361.346782	-153.736306
4818.811759	-203.319320	4361.446327	-152.724408
4818.711642	-203.319320	4361.545871	-151.712510
4818.611525	-205.343116	4361.645416	-149.688714
4818.511410	-204.331218	4361.744960	-150.700612
4818.411296	-207.366913	4361.844503	-148.676815
4818.311182	-207.366913	4361.944046	-147.664917
4818.211069	-213.438302	4362.043589	-147.664917
4818.110957	-218.497793	4362.143132	-149.688714
4818.010846	-221.533488	4362.242674	-148.676815
4817.910736	-224.569182	4362.342216	-150.700612
4817.810627	-228.616775	4362.441757	-152.724408
4817.710519	-225.581081	4362.541298	-151.712510
4817.610411	-224.569182	4362.640839	-152.724408
4817.510304	-223.557284	4362.740380	-153.736306
4817.410199	-224.569182	4362.839920	-153.736306
4817.310094	-222.545386	4362.939460	-149.688714
4817.209990	-221.533488	4363.038999	-151.712510
4817.109886	-223.557284	4363.138538	-149.688714
4817.009784	-228.616775	4363.238077	-147.664917
4816.909683	-229.628674	4363.337615	-145.641121
4816.809582	-234.688165	4363.437154	-147.664917
4816.709482	-238.735758	4363.536691	-147.664917
4816.609383	-241.771452	4363.636229	-150.700612
4816.509285	-242.783351	4363.735766	-151.712510
4816.409188	-243.795249	4363.835303	-151.712510
4816.309092	-244.807147	4363.934839	-153.736306
4816.208997	-246.830944	4364.034375	-153.736306
4816.108902	-243.795249	4364.133911	-154.748205
4816.008809	-244.807147	4364.233446	-155.760103
4815.908716	-240.759554	4364.332981	-156.772001
4815.808624	-236.711961	4364.432516	-157.783899
4815.708533	-230.640572	4364.532051	-157.783899
4815.608443	-225.581081	4364.631585	-155.760103
4815.508353	-223.557284	4364.731118	-155.760103
4815.408265	-219.509691	4364.830652	-154.748205
4815.308177	-223.557284	4364.930185	-152.724408
4815.208090	-226.592979	4365.029718	-150.700612
4815.108004	-228.616775	4365.129250	-152.724408
4815.007919	-230.640572	4365.228782	-152.724408
4814.907835	-234.688165	4365.328314	-152.724408
4814.807752	-236.711961	4365.427845	-153.736306
4814.707670	-233.676267	4365.527376	-154.748205
4814.607588	-231.652470	4365.626907	-156.772001
4814.507507	-233.676267	4365.726438	-155.760103
4814.407427	-231.652470	4365.825968	-155.760103
4814.307348	-229.628674	4365.925497	-152.724408
4814.207270	-231.652470	4366.025027	-153.736306
4814.107193	-228.616775	4366.124556	-154.748205
4814.007116	-229.628674	4366.224085	-151.712510
4813.907041	-224.569182	4366.323613	-150.700612
4813.806966	-222.545386	4366.423141	-150.700612
4813.706892	-219.509691	4366.522669	-149.688714
4813.606819	-218.497793	4366.622196	-150.700612
4813.506747	-216.473997	4366.721723	-152.724408
4813.406676	-216.473997	4366.821250	-153.736306
4813.306605	-213.438302	4366.920776	-153.736306
4813.206536	-214.450200	4367.020303	-156.772001
4813.106467	-217.485895	4367.119828	-156.772001
4813.006399	-215.462098	4367.219354	-157.783899
4812.906332	-216.473997	4367.318879	-154.748205
4812.806266	-215.462098	4367.418404	-153.736306
4812.706201	-218.497793	4367.517928	-152.724408
4812.606136	-221.533488	4367.617452	-151.712510
4812.506073	-226.592979	4367.716976	-151.712510
4812.406010	-230.640572	4367.816499	-152.724408
4812.305948	-233.676267	4367.916023	-153.736306
4812.205887	-234.688165	4368.015545	-155.760103
4812.105827	-234.688165	4368.115068	-154.748205
4812.005767	-231.652470	4368.214590	-154.748205
4811.905709	-230.640572	4368.314112	-152.724408
4811.805651	-228.616775	4368.413633	-150.700612
4811.705595	-227.604877	4368.513154	-152.724408
4811.605539	-227.604877	4368.612675	-151.712510
4811.505483	-230.640572	4368.712196	-152.724408
4811.405429	-231.652470	4368.811716	-151.712510
4811.305376	-232.664368	4368.911236	-152.724408
4811.205323	-234.688165	4369.010755	-150.700612
4811.105272	-232.664368	4369.110275	-148.676815
4811.005221	-229.628674	4369.209793	-147.664917
4810.905171	-226.592979	4369.309312	-147.664917
4810.805122	-223.557284	4369.408830	-150.700612
4810.705073	-221.533488	4369.508348	-152.724408
4810.605026	-221.533488	4369.607866	-153.736306
4810.504979	-222.545386	4369.707383	-155.760103
4810.404933	-222.545386	4369.806900	-157.783899
4810.304889	-225.581081	4369.906416	-157.783899
4810.204844	-226.592979	4370.005933	-154.748205
4810.104801	-226.592979	4370.105449	-153.736306
4810.004759	-225.581081	4370.204964	-152.724408
4809.904717	-227.604877	4370.304480	-155.760103
4809.804677	-228.616775	4370.403995	-158.795798
4809.704637	-224.569182	4370.503509	-159.807696
4809.604598	-225.581081	4370.603024	-159.807696
4809.504560	-224.569182	4370.702538	-162.843391
4809.404522	-225.581081	4370.802051	-159.807696
4809.304486	-228.616775	4370.901565	-160.819594
4809.204450	-228.616775	4371.001078	-157.783899
4809.104415	-229.628674	4371.100590	-156.772001
4809.004381	-232.664368	4371.200103	-157.783899
4808.904348	-236.711961	4371.299615	-158.795798
4808.804316	-241.771452	4371.399127	-160.819594
4808.704284	-244.807147	4371.498638	-157.783899
4808.604254	-244.807147	4371.598149	-159.807696
4808.504224	-245.819045	4371.697660	-156.772001
4808.404195	-246.830944	4371.797170	-152.724408
4808.304167	-244.807147	4371.896680	-151.712510
4808.204140	-240.759554	4371.996190	-151.712510
4808.104113	-240.759554	4372.095700	-152.724408
4808.004088	-239.747656	4372.195209	-150.700612
4807.904063	-237.723859	4372.294718	-152.724408
4807.804039	-237.723859	4372.394226	-152.724408
4807.704016	-239.747656	4372.493735	-153.736306
4807.603994	-243.795249	4372.593243	-151.712510
4807.503973	-241.771452	4372.692750	-153.736306
4807.403952	-243.795249	4372.792257	-153.736306
4807.303932	-239.747656	4372.891764	-151.712510
4807.203913	-238.735758	4372.991271	-151.712510
4807.103895	-234.688165	4373.090777	-150.700612
4807.003878	-231.652470	4373.190283	-150.700612
4806.903862	-228.616775	4373.289789	-150.700612
4806.803846	-229.628674	4373.389294	-150.700612
4806.703832	-228.616775	4373.488799	-152.724408
4806.603818	-232.664368	4373.588304	-155.760103
4806.503805	-234.688165	4373.687809	-154.748205
4806.403793	-239.747656	4373.787313	-155.760103
4806.303781	-244.807147	4373.886816	-155.760103
4806.203771	-247.842842	4373.986320	-156.772001
4806.103761	-250.878536	4374.085823	-153.736306
4806.003752	-251.890435	4374.185326	-152.724408
4805.903744	-254.926129	4374.284828	-151.712510
4805.803737	-255.938028	4374.384331	-150.700612
4805.703730	-255.938028	4374.483832	-150.700612
4805.603725	-254.926129	4374.583334	-149.688714
4805.503720	-254.926129	4374.682835	-147.664917
4805.403716	-254.926129	4374.782336	-148.676815
4805.303713	-253.914231	4374.881837	-146.653019
4805.203711	-251.890435	4374.981337	-148.676815
4805.103709	-250.878536	4375.080837	-148.676815
4805.003709	-250.878536	4375.180337	-150.700612
4804.903709	-249.866638	4375.279836	-148.676815
4804.803710	-248.854740	4375.379335	-152.724408
4804.703712	-247.842842	4375.478834	-152.724408
4804.603715	-246.830944	4375.578332	-151.712510
4804.503718	-248.854740	4375.677831	-153.736306
4804.403723	-249.866638	4375.777328	-152.724408
4804.303728	-253.914231	4375.876826	-151.712510
4804.203734	-260.997519	4375.976323	-149.688714
4804.103741	-264.033214	4376.075820	-148.676815
4804.003748	-269.092705	4376.175316	-148.676815
4803.903757	-272.128399	4376.274813	-147.664917
4803.803766	-273.140298	4376.374309	-150.700612
4803.703776	-272.128399	4376.473804	-149.688714
4803.603787	-269.092705	4376.573300	-152.724408
4803.503799	-268.080807	4376.672795	-155.760103
4803.403812	-267.068908	4376.772289	-154.748205
4803.303825	-268.080807	4376.871784	-153.736306
4803.203839	-269.092705	4376.971278	-153.736306
4803.103855	-273.140298	4377.070772	-150.700612
4803.003870	-276.175992	4377.170265	-148.676815
4802.903887	-279.211687	4377.269758	-148.676815
4802.803905	-283.259280	4377.369251	-148.676815
4802.703923	-281.235484	4377.468743	-150.700612
4802.603942	-280.223585	4377.568236	-151.712510
4802.503962	-280.223585	4377.667728	-152.724408
4802.403983	-280.223585	4377.767219	-153.736306
4802.304005	-279.211687	4377.866710	-152.724408
4802.204027	-278.199789	4377.966201	-153.736306
4802.104050	-278.199789	4378.065692	-153.736306
4802.004075	-277.187891	4378.165182	-152.724408
4801.904099	-279.211687	4378.264673	-152.724408
4801.804125	-279.211687	4378.364162	-151.712510
4801.704152	-281.235484	4378.463652	-149.688714
4801.604179	-282.247382	4378.563141	-150.700612
4801.504207	-283.259280	4378.662630	-149.688714
4801.404236	-280.223585	4378.762118	-147.664917
4801.304266	-278.199789	4378.861606	-148.676815
4801.204297	-280.223585	4378.961094	-147.664917
4801.104328	-277.187891	4379.060582	-146.653019
4801.004360	-280.223585	4379.160069	-148.676815
4800.904394	-278.199789	4379.259556	-148.676815
4800.804427	-277.187891	4379.359043	-148.676815
4800.704462	-274.152196	4379.458529	-147.664917
4800.604498	-272.128399	4379.558015	-149.688714
4800.504534	-266.057010	4379.657501	-150.700612
4800.404571	-263.021315	4379.756987	-148.676815
4800.304609	-258.973722	4379.856472	-149.688714
4800.204648	-254.926129	4379.955957	-147.664917
4800.104687	-250.878536	4380.055441	-148.676815
4800.004728	-251.890435	4380.154925	-149.688714
4799.904769	-252.902333	4380.254409	-148.676815
4799.804811	-254.926129	4380.353893	-150.700612
4799.704854	-256.949926	4380.453376	-149.688714
4799.604897	-259.985621	4380.552859	-148.676815
4799.504942	-258.973722	4380.652342	-150.700612
4799.404987	-258.973722	4380.751825	-146.653019
4799.305033	-259.985621	4380.851307	-146.653019
4799.205080	-260.997519	4380.950788	-145.641121
4799.105128	-262.009417	4381.050270	-143.617324
4799.005176	-267.068908	4381.149751	-143.617324
4798.905225	-270.104603	4381.249232	-144.629222
4798.805275	-274.152196	4381.348713	-146.653019
4798.705326	-275.164094	4381.448193	-148.676815
4798.605378	-278.199789	4381.547673	-150.700612
4798.505431	-276.175992	4381.647153	-150.700612
4798.405484	-276.175992	4381.746632	-148.676815
4798.305538	-274.152196	4381.846111	-150.700612
4798.205593	-272.128399	4381.945590	-148.676815
4798.105649	-273.140298	4382.045069	-148.676815
