scanstart [nm]: 4658.000000
slope [nm/V]: 42.182656
k [N/m]: 0.074466
velocity [nm/s]: 100.000000
6:05:00 PM

4628.811644	927.982847	4131.058101	-84.927227
4628.711033	925.959050	4131.158279	-81.891533
4628.610424	919.887662	4131.258456	-80.879635
4628.509815	914.828171	4131.358633	-79.867736
4628.409208	909.768680	4131.458808	-79.867736
4628.308601	904.709189	4131.558983	-78.855838
4628.207996	901.673495	4131.659156	-82.903431
4628.107392	901.673495	4131.759329	-82.903431
4628.006790	900.661597	4131.859500	-81.891533
4627.906188	901.673495	4131.959671	-83.915329
4627.805587	905.721088	4132.059840	-84.927227
4627.704988	908.756782	4132.160009	-84.927227
4627.604390	909.768680	4132.260177	-82.903431
4627.503793	908.756782	4132.360343	-82.903431
4627.403197	904.709189	4132.460509	-83.915329
4627.302602	893.578310	4132.560674	-82.903431
4627.202009	882.447430	4132.660837	-82.903431
4627.101416	865.245162	4132.761000	-84.927227
4627.000825	847.030995	4132.861162	-83.915329
4626.900235	831.852523	4132.961323	-82.903431
4626.799646	816.674051	4133.061482	-82.903431
4626.699058	804.531273	4133.161641	-82.903431
4626.598471	795.424189	4133.261799	-82.903431
4626.497886	791.376597	4133.361956	-84.927227
4626.397301	787.329004	4133.462112	-84.927227
4626.296718	787.329004	4133.562267	-85.939126
4626.196136	782.269514	4133.662421	-84.927227
4626.095555	783.281412	4133.762574	-83.915329
4625.994975	780.245717	4133.862726	-86.951024
4625.894396	777.210023	4133.962877	-85.939126
4625.793819	775.186226	4134.063027	-85.939126
4625.693243	766.079143	4134.163176	-82.903431
4625.592667	753.936365	4134.263324	-82.903431
4625.492093	739.769791	4134.363471	-81.891533
4625.391520	722.567522	4134.463617	-80.879635
4625.290948	705.365254	4134.563763	-82.903431
4625.190378	688.162985	4134.663907	-82.903431
4625.089808	680.067800	4134.764050	-83.915329
4624.989240	668.936920	4134.864193	-85.939126
4624.888673	663.877429	4134.964334	-87.962922
4624.788106	657.806040	4135.064474	-83.915329
4624.687542	652.746550	4135.164614	-83.915329
4624.586978	647.687059	4135.264752	-80.879635
4624.486415	644.651364	4135.364890	-77.843940
4624.385853	637.568077	4135.465026	-75.820144
4624.285293	633.520485	4135.565162	-77.843940
4624.184734	633.520485	4135.665297	-80.879635
4624.084176	627.449096	4135.765430	-80.879635
4623.983619	624.413401	4135.865563	-81.891533
4623.883063	615.306318	4135.965695	-81.891533
4623.782508	603.163540	4136.065825	-83.915329
4623.681954	590.008864	4136.165955	-81.891533
4623.581402	577.866086	4136.266084	-80.879635
4623.480851	563.699511	4136.366212	-81.891533
4623.380300	548.521039	4136.466339	-82.903431
4623.279751	536.378261	4136.566465	-84.927227
4623.179203	523.223585	4136.666590	-85.939126
4623.078657	513.104603	4136.766714	-83.915329
4622.978111	505.009418	4136.866837	-84.927227
4622.877566	495.902334	4136.966959	-82.903431
4622.777023	491.854742	4137.067081	-80.879635
4622.676481	489.830945	4137.167201	-78.855838
4622.575940	489.830945	4137.267320	-79.867736
4622.475400	491.854742	4137.367438	-80.879635
4622.374861	494.890436	4137.467556	-80.879635
4622.274323	496.914233	4137.567672	-82.903431
4622.173786	495.902334	4137.667788	-82.903431
4622.073251	488.819047	4137.767902	-81.891533
4621.972717	472.628676	4137.868016	-80.879635
4621.872183	452.390713	4137.968128	-80.879635
4621.771651	432.152750	4138.068240	-79.867736
4621.671120	413.938582	4138.168351	-79.867736
4621.570590	398.760110	4138.268460	-77.843940
4621.470062	387.629230	4138.368569	-78.855838
4621.369534	380.545943	4138.468677	-79.867736
4621.269008	381.557841	4138.568784	-79.867736
4621.168482	384.593535	4138.668890	-79.867736
4621.067958	387.629230	4138.768995	-78.855838
4620.967435	389.653026	4138.869099	-78.855838
4620.866913	389.653026	4138.969202	-79.867736
4620.766392	385.605434	4139.069304	-81.891533
4620.665872	377.510248	4139.169405	-83.915329
4620.565354	364.355572	4139.269506	-84.927227
4620.464836	347.153303	4139.369605	-85.939126
4620.364320	331.974830	4139.469703	-83.915329
4620.263805	313.760663	4139.569801	-80.879635
4620.163291	298.582190	4139.669897	-77.843940
4620.062778	286.439412	4139.769993	-75.820144
4619.962266	277.332328	4139.870087	-74.808245
4619.861755	268.225245	4139.970181	-75.820144
4619.761245	262.153855	4140.070274	-78.855838
4619.660737	259.118161	4140.170366	-77.843940
4619.560229	256.082466	4140.270456	-76.832042
4619.459723	254.058670	4140.370546	-77.843940
4619.359218	254.058670	4140.470635	-74.808245
4619.258714	252.034874	4140.570723	-73.796347
4619.158211	248.999179	4140.670810	-72.784449
4619.057709	244.951586	4140.770896	-75.820144
4618.957209	238.880197	4140.870982	-77.843940
4618.856709	230.785012	4140.971066	-80.879635
4618.756210	223.701724	4141.071149	-79.867736
4618.655713	216.618437	4141.171232	-79.867736
4618.555217	206.499455	4141.271313	-80.879635
4618.454722	200.428066	4141.371394	-76.832042
4618.354228	191.320982	4141.471473	-77.843940
4618.253735	184.237695	4141.571552	-76.832042
4618.153243	180.190102	4141.671629	-78.855838
4618.052752	175.130611	4141.771706	-79.867736
4617.952263	173.106815	4141.871782	-78.855838
4617.851774	173.106815	4141.971857	-79.867736
4617.751287	170.071120	4142.071931	-79.867736
4617.650801	168.047324	4142.172004	-78.855838
4617.550316	165.011629	4142.272076	-78.855838
4617.449832	158.940240	4142.372147	-74.808245
4617.349349	148.821258	4142.472217	-75.820144
4617.248867	141.737971	4142.572287	-77.843940
4617.148386	128.583294	4142.672355	-78.855838
4617.047907	119.476210	4142.772422	-81.891533
4616.947428	109.357228	4142.872489	-83.915329
4616.846951	103.285839	4142.972554	-83.915329
4616.746475	97.214450	4143.072619	-84.927227
4616.646000	93.166857	4143.172683	-83.915329
4616.545525	89.119264	4143.272746	-82.903431
4616.445053	82.035977	4143.372807	-80.879635
4616.344581	73.940791	4143.472868	-80.879635
4616.244110	66.857504	4143.572928	-81.891533
4616.143640	55.726624	4143.672987	-79.867736
4616.043172	47.631438	4143.773046	-79.867736
4615.942704	45.607642	4143.873103	-82.903431
4615.842238	43.583845	4143.973159	-83.915329
4615.741773	42.571947	4144.073215	-81.891533
4615.641309	44.595744	4144.173269	-80.879635
4615.540846	42.571947	4144.273322	-79.867736
4615.440384	43.583845	4144.373375	-77.843940
4615.339923	40.548151	4144.473427	-79.867736
4615.239463	35.488660	4144.573478	-80.879635
4615.139005	29.417270	4144.673527	-79.867736
4615.038547	21.322085	4144.773576	-83.915329
4614.938091	11.203103	4144.873624	-81.891533
4614.837636	4.119815	4144.973671	-83.915329
4614.737181	-7.011065	4145.073718	-81.891533
4614.636728	-11.058658	4145.173763	-83.915329
4614.536276	-15.106251	4145.273807	-79.867736
4614.435825	-17.130047	4145.373850	-78.855838
4614.335375	-16.118149	4145.473893	-77.843940
4614.234927	-17.130047	4145.573934	-77.843940
4614.134479	-19.153844	4145.673975	-79.867736
4614.034033	-21.177640	4145.774015	-81.891533
4613.933587	-23.201436	4145.874054	-80.879635
4613.833143	-26.237131	4145.974092	-81.891533
4613.732700	-29.272826	4146.074129	-82.903431
4613.632257	-32.308520	4146.174165	-79.867736
4613.531816	-35.344215	4146.274200	-79.867736
4613.431376	-43.439401	4146.374234	-81.891533
4613.330937	-50.522688	4146.474267	-84.927227
4613.230500	-56.594077	4146.574300	-82.903431
4613.130063	-64.689263	4146.674331	-83.915329
4613.029627	-71.772551	4146.774362	-84.927227
4612.929193	-68.736856	4146.874391	-81.891533
4612.828759	-66.713060	4146.974420	-79.867736
4612.728327	-61.653569	4147.074448	-78.855838
4612.627896	-54.570281	4147.174475	-76.832042
4612.527466	-51.534586	4147.274501	-75.820144
4612.427037	-53.558383	4147.374526	-72.784449
4612.326609	-55.582179	4147.474550	-76.832042
4612.226182	-60.641670	4147.574574	-77.843940
4612.125756	-65.701161	4147.674596	-79.867736
4612.025331	-71.772551	4147.774618	-82.903431
4611.924908	-75.820144	4147.874638	-82.903431
4611.824485	-79.867736	4147.974658	-84.927227
4611.724064	-83.915329	4148.074677	-82.903431
4611.623643	-87.962922	4148.174694	-80.879635
4611.523224	-94.034311	4148.274711	-80.879635
4611.422806	-100.105701	4148.374727	-80.879635
4611.322389	-104.153294	4148.474743	-80.879635
4611.221973	-106.177090	4148.574757	-78.855838
4611.121558	-102.129497	4148.674770	-82.903431
4611.021144	-95.046210	4148.774783	-81.891533
4610.920731	-84.927227	4148.874794	-82.903431
4610.820319	-78.855838	4148.974805	-81.891533
4610.719909	-72.784449	4149.074815	-81.891533
4610.619499	-74.808245	4149.174823	-82.903431
4610.519091	-80.879635	4149.274831	-82.903431
4610.418683	-88.974820	4149.374838	-81.891533
4610.318277	-98.081904	4149.474844	-79.867736
4610.217872	-107.188988	4149.574850	-82.903431
4610.117468	-112.248479	4149.674854	-81.891533
4610.017065	-118.319869	4149.774857	-80.879635
4609.916663	-122.367462	4149.874860	-78.855838
4609.816262	-126.415054	4149.974862	-77.843940
4609.715862	-128.438851	4150.074862	-79.867736
4609.615463	-130.462647	4150.174862	-79.867736
4609.515066	-131.474546	4150.274861	-82.903431
4609.414669	-132.486444	4150.374859	-84.927227
4609.314273	-132.486444	4150.474856	-82.903431
4609.213879	-130.462647	4150.574853	-80.879635
4609.113486	-133.498342	4150.674848	-81.891533
4609.013093	-134.510240	4150.774842	-78.855838
4608.912702	-138.557833	4150.874836	-76.832042
4608.812312	-145.641121	4150.974829	-78.855838
4608.711923	-151.712510	4151.074820	-79.867736
4608.611535	-155.760103	4151.174811	-81.891533
4608.511148	-161.831492	4151.274801	-81.891533
4608.410762	-161.831492	4151.374790	-83.915329
4608.310377	-161.831492	4151.474779	-83.915329
4608.209994	-161.831492	4151.574766	-83.915329
4608.109611	-164.867187	4151.674752	-82.903431
4608.009229	-163.855289	4151.774738	-82.903431
4607.908849	-163.855289	4151.874723	-81.891533
4607.808469	-159.807696	4151.974706	-80.879635
4607.708091	-151.712510	4152.074689	-81.891533
4607.607714	-146.653019	4152.174671	-78.855838
4607.507338	-137.545935	4152.274652	-80.879635
4607.406962	-132.486444	4152.374633	-80.879635
4607.306588	-134.510240	4152.474612	-82.903431
4607.206215	-139.569731	4152.574590	-82.903431
4607.105843	-146.653019	4152.674568	-82.903431
4607.005472	-152.724408	4152.774545	-83.915329
4606.905103	-157.783899	4152.874520	-80.879635
4606.804734	-158.795798	4152.974495	-81.891533
4606.704366	-158.795798	4153.074469	-79.867736
4606.604000	-156.772001	4153.174442	-78.855838
4606.503634	-155.760103	4153.274415	-79.867736
4606.403269	-157.783899	4153.374386	-80.879635
4606.302906	-158.795798	4153.474357	-82.903431
4606.202544	-161.831492	4153.574326	-83.915329
4606.102182	-163.855289	4153.674295	-79.867736
4606.001822	-165.879085	4153.774263	-79.867736
4605.901463	-169.926678	4153.874230	-80.879635
4605.801105	-172.962373	4153.974196	-81.891533
4605.700748	-174.986169	4154.074161	-81.891533
4605.600392	-177.009966	4154.174125	-82.903431
4605.500037	-178.021864	4154.274089	-83.915329
4605.399683	-172.962373	4154.374051	-84.927227
4605.299330	-166.890983	4154.474013	-81.891533
4605.198978	-158.795798	4154.573974	-79.867736
4605.098628	-147.664917	4154.673934	-78.855838
4604.998278	-145.641121	4154.773893	-77.843940
4604.897929	-143.617324	4154.873851	-80.879635
4604.797582	-143.617324	4154.973809	-82.903431
4604.697235	-147.664917	4155.073765	-83.915329
4604.596890	-147.664917	4155.173721	-86.951024
4604.496545	-147.664917	4155.273675	-89.986719
4604.396202	-145.641121	4155.373629	-90.998617
4604.295860	-142.605426	4155.473582	-90.998617
4604.195519	-137.545935	4155.573534	-86.951024
4604.095178	-135.522138	4155.673485	-81.891533
4603.994839	-136.534037	4155.773436	-81.891533
4603.894501	-136.534037	4155.873385	-77.843940
4603.794164	-140.581630	4155.973334	-78.855838
4603.693828	-146.653019	4156.073281	-77.843940
4603.593493	-151.712510	4156.173228	-79.867736
4603.493160	-156.772001	4156.273174	-80.879635
4603.392827	-160.819594	4156.373119	-82.903431
4603.292495	-164.867187	4156.473064	-82.903431
4603.192164	-163.855289	4156.573007	-79.867736
4603.091835	-166.890983	4156.672950	-77.843940
4602.991506	-168.914780	4156.772891	-77.843940
4602.891179	-168.914780	4156.872832	-74.808245
4602.790852	-172.962373	4156.972772	-74.808245
4602.690527	-174.986169	4157.072711	-74.808245
4602.590202	-174.986169	4157.172649	-76.832042
4602.489879	-174.986169	4157.272586	-77.843940
4602.389557	-174.986169	4157.372523	-78.855838
4602.289235	-173.974271	4157.472459	-79.867736
4602.188915	-178.021864	4157.572393	-78.855838
4602.088596	-180.045660	4157.672327	-78.855838
4601.988278	-182.069457	4157.772260	-79.867736
4601.887961	-182.069457	4157.872192	-78.855838
4601.787645	-181.057559	4157.972124	-78.855838
4601.687330	-180.045660	4158.072054	-79.867736
4601.587016	-177.009966	4158.171984	-81.891533
4601.486703	-171.950475	4158.271912	-81.891533
4601.386391	-171.950475	4158.371840	-81.891533
4601.286080	-168.914780	4158.471767	-80.879635
4601.185771	-170.938576	4158.571693	-77.843940
4601.085462	-169.926678	4158.671618	-75.820144
4600.985154	-172.962373	4158.771543	-75.820144
4600.884847	-175.998067	4158.871466	-73.796347
4600.784542	-178.021864	4158.971389	-72.784449
4600.684237	-180.045660	4159.071311	-75.820144
4600.583934	-182.069457	4159.171232	-77.843940
4600.483631	-183.081355	4159.271152	-83.915329
4600.383330	-182.069457	4159.371071	-81.891533
4600.283029	-180.045660	4159.470990	-80.879635
4600.182730	-180.045660	4159.570907	-82.903431
4600.082432	-180.045660	4159.670824	-80.879635
4599.982134	-180.045660	4159.770740	-78.855838
4599.881838	-180.045660	4159.870655	-78.855838
4599.781543	-178.021864	4159.970569	-79.867736
4599.681249	-179.033762	4160.070482	-78.855838
4599.580956	-181.057559	4160.170395	-78.855838
4599.480663	-182.069457	4160.270306	-80.879635
4599.380372	-185.105151	4160.370217	-79.867736
4599.280082	-187.128948	4160.470127	-80.879635
4599.179793	-191.176541	4160.570036	-79.867736
4599.079505	-192.188439	4160.669944	-79.867736
4598.979218	-195.224134	4160.769852	-79.867736
4598.878932	-196.236032	4160.869758	-82.903431
4598.778648	-199.271727	4160.969664	-82.903431
4598.678364	-200.283625	4161.069569	-81.891533
4598.578081	-201.295523	4161.169473	-83.915329
4598.477799	-202.307421	4161.269376	-83.915329
4598.377518	-199.271727	4161.369278	-82.903431
4598.277239	-196.236032	4161.469179	-81.891533
4598.176960	-195.224134	4161.569080	-79.867736
4598.076682	-192.188439	4161.668980	-76.832042
4597.976405	-191.176541	4161.768879	-75.820144
4597.876130	-192.188439	4161.868777	-74.808245
4597.775855	-194.212236	4161.968674	-74.808245
4597.675582	-197.247930	4162.068570	-74.808245
4597.575309	-197.247930	4162.168466	-76.832042
4597.475038	-197.247930	4162.268360	-77.843940
4597.374767	-199.271727	4162.368254	-80.879635
4597.274498	-198.259828	4162.468147	-79.867736
4597.174229	-195.224134	4162.568039	-78.855838
4597.073962	-191.176541	4162.667931	-79.867736
4596.973695	-187.128948	4162.767821	-77.843940
4596.873430	-184.093253	4162.867711	-75.820144
4596.773166	-185.105151	4162.967599	-72.784449
4596.672902	-183.081355	4163.067487	-72.784449
4596.572640	-189.152744	4163.167375	-72.784449
4596.472379	-193.200337	4163.267261	-73.796347
4596.372119	-198.259828	4163.367146	-74.808245
4596.271859	-202.307421	4163.467031	-78.855838
4596.171601	-206.355014	4163.566915	-78.855838
4596.071344	-204.331218	4163.666798	-79.867736
4595.971088	-203.319320	4163.766680	-78.855838
4595.870833	-201.295523	4163.866561	-79.867736
4595.770579	-200.283625	4163.966441	-78.855838
4595.670325	-199.271727	4164.066321	-77.843940
4595.570073	-196.236032	4164.166200	-78.855838
4595.469822	-198.259828	4164.266078	-77.843940
4595.369572	-201.295523	4164.365955	-77.843940
4595.269323	-204.331218	4164.465831	-76.832042
4595.169075	-209.390709	4164.565706	-76.832042
4595.068828	-215.462098	4164.665581	-75.820144
4594.968582	-217.485895	4164.765455	-75.820144
4594.868337	-220.521590	4164.865328	-77.843940
4594.768093	-223.557284	4164.965200	-75.820144
4594.667850	-224.569182	4165.065071	-78.855838
4594.567608	-221.533488	4165.164942	-79.867736
4594.467367	-223.557284	4165.264811	-80.879635
4594.367128	-227.604877	4165.364680	-82.903431
4594.266889	-229.628674	4165.464548	-83.915329
4594.166651	-233.676267	4165.564415	-86.951024
4594.066414	-239.747656	4165.664282	-82.903431
4593.966178	-241.771452	4165.764147	-82.903431
4593.865943	-244.807147	4165.864012	-82.903431
4593.765709	-246.830944	4165.963876	-79.867736
4593.665477	-251.890435	4166.063739	-79.867736
4593.565245	-251.890435	4166.163601	-76.832042
4593.465014	-253.914231	4166.263462	-75.820144
4593.364784	-257.961824	4166.363323	-77.843940
4593.264555	-259.985621	4166.463182	-77.843940
4593.164328	-266.057010	4166.563041	-77.843940
4593.064101	-270.104603	4166.662899	-77.843940
4592.963875	-274.152196	4166.762757	-74.808245
4592.863650	-277.187891	4166.862613	-73.796347
4592.763427	-281.235484	4166.962469	-72.784449
4592.663204	-281.235484	4167.062324	-73.796347
4592.562982	-284.271178	4167.162177	-73.796347
4592.462761	-285.283077	4167.262031	-75.820144
4592.362542	-291.354466	4167.361883	-77.843940
4592.262323	-296.413957	4167.461735	-77.843940
4592.162105	-300.461550	4167.561585	-75.820144
4592.061889	-301.473448	4167.661435	-77.843940
4591.961673	-301.473448	4167.761284	-74.808245
4591.861458	-302.485347	4167.861132	-77.843940
4591.761244	-295.402059	4167.960980	-78.855838
4591.661032	-286.294975	4168.060826	-77.843940
4591.560820	-277.187891	4168.160672	-78.855838
4591.460609	-266.057010	4168.260517	-78.855838
4591.360400	-253.914231	4168.360361	-77.843940
4591.260191	-242.783351	4168.460205	-75.820144
4591.159983	-234.688165	4168.560047	-75.820144
4591.059777	-228.616775	4168.659889	-73.796347
4590.959571	-229.628674	4168.759730	-75.820144
4590.859366	-228.616775	4168.859570	-76.832042
4590.759163	-231.652470	4168.959409	-74.808245
4590.658960	-234.688165	4169.059248	-76.832042
4590.558758	-231.652470	4169.159086	-76.832042
4590.458557	-229.628674	4169.258923	-78.855838
4590.358358	-221.533488	4169.358759	-79.867736
4590.258159	-215.462098	4169.458594	-81.891533
4590.157961	-210.402607	4169.558428	-82.903431
4590.057765	-204.331218	4169.658262	-87.962922
4589.957569	-203.319320	4169.758095	-85.939126
4589.857374	-204.331218	4169.857927	-84.927227
4589.757180	-202.307421	4169.957758	-82.903431
4589.656988	-203.319320	4170.057588	-80.879635
4589.556796	-206.355014	4170.157418	-79.867736
4589.456605	-206.355014	4170.257247	-77.843940
4589.356415	-205.343116	4170.357075	-77.843940
4589.256227	-207.366913	4170.456902	-79.867736
4589.156039	-207.366913	4170.556728	-78.855838
4589.055852	-206.355014	4170.656554	-77.843940
4588.955666	-201.295523	4170.756379	-80.879635
4588.855481	-198.259828	4170.856203	-77.843940
4588.755298	-189.152744	4170.956026	-78.855838
4588.655115	-181.057559	4171.055848	-77.843940
4588.554933	-174.986169	4171.155670	-75.820144
4588.454752	-167.902882	4171.255491	-75.820144
4588.354572	-164.867187	4171.355311	-78.855838
4588.254393	-164.867187	4171.455130	-78.855838
4588.154216	-165.879085	4171.554948	-79.867736
4588.054039	-166.890983	4171.654766	-79.867736
4587.953863	-169.926678	4171.754582	-77.843940
4587.853688	-167.902882	4171.854398	-78.855838
4587.753514	-169.926678	4171.954214	-77.843940
4587.653341	-165.879085	4172.054028	-75.820144
4587.553169	-165.879085	4172.153841	-74.808245
4587.452998	-165.879085	4172.253654	-73.796347
4587.352828	-167.902882	4172.353466	-76.832042
4587.252659	-168.914780	4172.453277	-76.832042
4587.152491	-171.950475	4172.553088	-79.867736
4587.052324	-171.950475	4172.652897	-82.903431
4586.952158	-171.950475	4172.752706	-81.891533
