scanstart [nm]: 4540.000000
slope [nm/V]: 42.182656
k [N/m]: 0.074466
velocity [nm/s]: 100.000000
5:45:28 PM

4509.343125	794.412291	4010.579579	-1001.707061
4509.241123	794.412291	4010.680405	-1001.707061
4509.139124	794.412291	4010.781229	-1000.695162
4509.037126	794.412291	4010.882052	-999.683264
4508.935131	796.436088	4010.982873	-998.671366
4508.833137	800.483680	4011.083692	-999.683264
4508.731145	802.507477	4011.184509	-998.671366
4508.629155	807.566967	4011.285324	-996.647569
4508.527167	813.638356	4011.386138	-996.647569
4508.425180	817.685949	4011.486950	-994.623772
4508.323196	818.697847	4011.587760	-995.635671
4508.221214	812.626458	4011.688568	-994.623772
4508.119233	801.495578	4011.789374	-994.623772
4508.017254	782.269514	4011.890179	-995.635671
4507.915277	764.055347	4011.990982	-997.659467
4507.813302	745.841180	4012.091783	-996.647569
4507.711329	731.674606	4012.192582	-994.623772
4507.609358	723.579421	4012.293380	-995.635671
4507.507388	719.531828	4012.394175	-996.647569
4507.405421	719.531828	4012.494969	-995.635671
4507.303455	718.519930	4012.595762	-995.635671
4507.201491	715.484235	4012.696552	-993.611874
4507.099529	710.424745	4012.797341	-992.599976
4506.997569	703.341458	4012.898127	-994.623772
4506.895611	691.198680	4012.998912	-994.623772
4506.793655	681.079698	4013.099696	-995.635671
4506.691700	671.972615	4013.200477	-995.635671
4506.589748	663.877429	4013.301257	-993.611874
4506.487797	656.794142	4013.402035	-992.599976
4506.385848	648.698957	4013.502811	-993.611874
4506.283901	638.579975	4013.603585	-992.599976
4506.181956	630.484790	4013.704358	-991.588077
4506.080013	621.377707	4013.805129	-993.611874
4505.978071	608.223031	4013.905898	-993.611874
4505.876132	597.092151	4014.006665	-996.647569
4505.774194	585.961271	4014.107430	-994.623772
4505.672258	574.830391	4014.208194	-996.647569
4505.570324	567.747104	4014.308956	-994.623772
4505.468392	558.640021	4014.409716	-995.635671
4505.366462	550.544835	4014.510475	-993.611874
4505.264533	540.425854	4014.611232	-993.611874
4505.162607	533.342567	4014.711986	-995.635671
4505.060682	526.259279	4014.812740	-993.611874
4504.958759	517.152196	4014.913491	-994.623772
4504.856838	506.021316	4015.014241	-994.623772
4504.754919	498.938029	4015.114989	-995.635671
4504.653002	488.819047	4015.215735	-995.635671
4504.551087	477.688167	4015.316479	-994.623772
4504.449173	472.628676	4015.417222	-994.623772
4504.347261	459.474000	4015.517962	-994.623772
4504.245352	447.331222	4015.618702	-997.659467
4504.143444	434.176546	4015.719439	-997.659467
4504.041537	422.033768	4015.820174	-996.647569
4503.939633	415.962379	4015.920908	-995.635671
4503.837731	411.914786	4016.021640	-995.635671
4503.735830	407.867193	4016.122371	-994.623772
4503.633931	404.831499	4016.223099	-999.683264
4503.532034	401.795804	4016.323826	-999.683264
4503.430139	396.736313	4016.424551	-1001.707061
4503.328246	390.664924	4016.525274	-1000.695162
4503.226355	381.557841	4016.625996	-1002.718959
4503.124465	373.462655	4016.726716	-1000.695162
4503.022578	363.343674	4016.827434	-998.671366
4502.920692	355.248488	4016.928150	-997.659467
4502.818808	344.117608	4017.028865	-997.659467
4502.716926	330.962932	4017.129578	-997.659467
4502.615046	319.832052	4017.230289	-1000.695162
4502.513167	305.665477	4017.330998	-1002.718959
4502.411290	294.534597	4017.431706	-1001.707061
4502.309416	287.451310	4017.532411	-999.683264
4502.207543	285.427514	4017.633116	-999.683264
4502.105672	283.403717	4017.733818	-997.659467
4502.003803	282.391819	4017.834519	-995.635671
4501.901935	277.332328	4017.935218	-993.611874
4501.800070	273.284736	4018.035915	-993.611874
4501.698206	262.153855	4018.136610	-995.635671
4501.596344	252.034874	4018.237304	-994.623772
4501.494484	241.915892	4018.337996	-995.635671
4501.392626	235.844503	4018.438686	-997.659467
4501.290769	229.773113	4018.539375	-996.647569
4501.188915	221.677928	4018.640062	-996.647569
4501.087062	212.570844	4018.740747	-994.623772
4500.985211	202.451862	4018.841430	-994.623772
4500.883362	189.297186	4018.942112	-997.659467
4500.781515	177.154408	4019.042791	-996.647569
4500.679670	165.011629	4019.143470	-996.647569
4500.577826	155.904545	4019.244146	-998.671366
4500.475984	145.785564	4019.344821	-995.635671
4500.374145	139.714174	4019.445494	-995.635671
4500.272307	133.642785	4019.546165	-995.635671
4500.170470	126.559498	4019.646834	-997.659467
4500.068636	118.464312	4019.747502	-998.671366
4499.966803	107.333432	4019.848168	-999.683264
4499.864973	98.226348	4019.948833	-1000.695162
4499.763144	86.083570	4020.049495	-999.683264
4499.661317	76.976486	4020.150156	-999.683264
4499.559492	65.845606	4020.250816	-997.659467
4499.457668	56.738522	4020.351473	-994.623772
4499.355847	47.631438	4020.452129	-993.611874
4499.254027	42.571947	4020.552783	-994.623772
4499.152209	35.488660	4020.653435	-994.623772
4499.050393	28.405372	4020.754086	-994.623772
4498.948578	23.345881	4020.854735	-996.647569
4498.846766	16.262594	4020.955382	-995.635671
4498.744955	11.203103	4021.056028	-994.623772
4498.643146	3.107917	4021.156672	-994.623772
4498.541339	-4.987269	4021.257314	-994.623772
4498.439534	-14.094353	4021.357954	-994.623772
4498.337731	-21.177640	4021.458593	-996.647569
4498.235929	-24.213335	4021.559230	-999.683264
4498.134130	-30.284724	4021.659865	-997.659467
4498.032332	-34.332317	4021.760499	-1000.695162
4497.930536	-41.415604	4021.861131	-999.683264
4497.828741	-50.522688	4021.961761	-996.647569
4497.726949	-63.677365	4022.062389	-995.635671
4497.625158	-76.832042	4022.163016	-995.635671
4497.523369	-88.974820	4022.263641	-995.635671
4497.421582	-100.105701	4022.364265	-996.647569
4497.319797	-105.165192	4022.464886	-998.671366
4497.218014	-106.177090	4022.565506	-998.671366
4497.116232	-108.200886	4022.666125	-999.683264
4497.014452	-110.224683	4022.766741	-998.671366
4496.912674	-116.296072	4022.867356	-997.659467
4496.810898	-127.426953	4022.967969	-997.659467
4496.709124	-141.593528	4023.068581	-997.659467
4496.607351	-154.748205	4023.169191	-993.611874
4496.505581	-161.831492	4023.269799	-997.659467
4496.403812	-164.867187	4023.370405	-998.671366
4496.302045	-159.807696	4023.471010	-997.659467
4496.200279	-156.772001	4023.571613	-1004.742756
4496.098516	-152.724408	4023.672214	-1003.730857
4495.996754	-158.795798	4023.772814	-1002.718959
4495.894994	-170.938576	4023.873412	-1001.707061
4495.793236	-191.176541	4023.974009	-999.683264
4495.691480	-214.450200	4024.074603	-997.659467
4495.589726	-239.747656	4024.175196	-998.671366
4495.487973	-255.938028	4024.275788	-998.671366
4495.386222	-271.116501	4024.376377	-997.659467
4495.284473	-272.128399	4024.476965	-1000.695162
4495.182726	-268.080807	4024.577551	-1000.695162
4495.080980	-265.045112	4024.678136	-1000.695162
4494.979237	-263.021315	4024.778719	-998.671366
4494.877495	-269.092705	4024.879300	-997.659467
4494.775755	-278.199789	4024.979880	-999.683264
4494.674017	-288.318771	4025.080457	-997.659467
4494.572280	-303.497245	4025.181034	-996.647569
4494.470546	-316.651922	4025.281608	-998.671366
4494.368813	-325.759006	4025.382181	-997.659467
4494.267082	-333.854192	4025.482752	-998.671366
4494.165352	-343.973175	4025.583322	-1000.695162
4494.063625	-354.092157	4025.683890	-1001.707061
4493.961899	-366.234936	4025.784456	-1001.707061
4493.860175	-376.353918	4025.885020	-1002.718959
4493.758453	-389.508596	4025.985583	-1002.718959
4493.656733	-400.639476	4026.086144	-999.683264
4493.555014	-410.758459	4026.186704	-999.683264
4493.453298	-416.829848	4026.287262	-998.671366
4493.351583	-421.889340	4026.387818	-996.647569
4493.249870	-424.925035	4026.488372	-996.647569
4493.148158	-426.948831	4026.588925	-995.635671
4493.046449	-432.008322	4026.689476	-997.659467
4492.944741	-444.151101	4026.790026	-997.659467
4492.843035	-460.341473	4026.890574	-997.659467
4492.741331	-476.531846	4026.991120	-998.671366
4492.639629	-491.710320	4027.091665	-1000.695162
4492.537928	-502.841200	4027.192208	-1000.695162
4492.436229	-509.924488	4027.292749	-999.683264
4492.334532	-512.960183	4027.393288	-997.659467
4492.232837	-513.972081	4027.493826	-999.683264
4492.131143	-520.043471	4027.594363	-997.659467
4492.029452	-529.150555	4027.694897	-997.659467
4491.927762	-539.269538	4027.795430	-997.659467
4491.826074	-549.388521	4027.895962	-1000.695162
4491.724388	-560.519402	4027.996491	-998.671366
4491.622703	-565.578893	4028.097019	-998.671366
4491.521020	-570.638384	4028.197546	-995.635671
4491.419339	-574.685977	4028.298071	-998.671366
4491.317660	-578.733571	4028.398594	-998.671366
4491.215983	-582.781164	4028.499115	-1000.695162
4491.114307	-593.912045	4028.599635	-1001.707061
4491.012633	-603.019129	4028.700153	-999.683264
4490.910961	-613.138112	4028.800670	-998.671366
4490.809291	-620.221400	4028.901185	-997.659467
4490.707622	-628.316586	4029.001698	-997.659467
4490.605955	-634.387976	4029.102209	-997.659467
4490.504290	-641.471264	4029.202719	-997.659467
4490.402627	-647.542653	4029.303228	-1000.695162
4490.300966	-655.637840	4029.403734	-997.659467
4490.199306	-662.721128	4029.504240	-997.659467
4490.097648	-666.768721	4029.604743	-998.671366
4489.995992	-668.792517	4029.705245	-996.647569
4489.894338	-667.780619	4029.805745	-995.635671
4489.792685	-666.768721	4029.906243	-996.647569
4489.691034	-668.792517	4030.006740	-997.659467
4489.589385	-676.887704	4030.107236	-997.659467
4489.487738	-687.006687	4030.207729	-1002.718959
4489.386093	-703.197059	4030.308221	-1004.742756
4489.284449	-718.375534	4030.408712	-1003.730857
4489.182807	-732.542110	4030.509200	-1002.718959
4489.081167	-746.708686	4030.609688	-1000.695162
4488.979528	-758.851465	4030.710173	-1001.707061
4488.877892	-765.934753	4030.810657	-998.671366
4488.776257	-773.018041	4030.911139	-998.671366
4488.674624	-775.041838	4031.011620	-996.647569
4488.572992	-777.065635	4031.112099	-996.647569
4488.471363	-782.125126	4031.212576	-997.659467
4488.369735	-785.160821	4031.313052	-999.683264
4488.268109	-794.267906	4031.413526	-1000.695162
4488.166485	-806.410685	4031.513999	-1000.695162
4488.064862	-817.541567	4031.614470	-997.659467
4487.963241	-828.672448	4031.714939	-997.659467
4487.861622	-837.779533	4031.815407	-997.659467
4487.760005	-843.850923	4031.915873	-996.647569
4487.658390	-846.886618	4032.016337	-995.635671
4487.556776	-849.922313	4032.116800	-994.623772
4487.455164	-855.993702	4032.217261	-994.623772
4487.353554	-855.993702	4032.317721	-993.611874
4487.251945	-855.993702	4032.418179	-993.611874
4487.150338	-855.993702	4032.518635	-994.623772
4487.048734	-857.005601	4032.619090	-993.611874
4486.947130	-857.005601	4032.719543	-995.635671
4486.845529	-863.076991	4032.819995	-995.635671
4486.743929	-871.172177	4032.920445	-996.647569
4486.642331	-878.255465	4033.020893	-1000.695162
4486.540735	-881.291160	4033.121340	-998.671366
4486.439141	-879.267364	4033.221785	-999.683264
4486.337548	-872.184075	4033.322228	-997.659467
4486.235957	-865.100787	4033.422670	-999.683264
4486.134368	-863.076991	4033.523111	-1001.707061
4486.032780	-868.136482	4033.623549	-1003.730857
4485.931195	-884.326855	4033.723987	-1002.718959
4485.829611	-904.564822	4033.824422	-1001.707061
4485.728029	-929.862280	4033.924856	-997.659467
4485.626448	-953.135941	4034.025288	-999.683264
4485.524870	-963.254924	4034.125719	-996.647569
4485.423293	-968.314416	4034.226148	-995.635671
4485.321717	-963.254924	4034.326576	-993.611874
4485.220144	-959.207331	4034.427002	-994.623772
4485.118572	-953.135941	4034.527426	-993.611874
4485.017002	-955.159738	4034.627849	-994.623772
4484.915434	-958.195433	4034.728270	-997.659467
4484.813868	-968.314416	4034.828690	-999.683264
4484.712303	-977.421501	4034.929108	-1000.695162
4484.610740	-983.492891	4035.029524	-1000.695162
4484.509179	-989.564281	4035.129939	-1000.695162
4484.407619	-993.611874	4035.230352	-997.659467
4484.306062	-1000.695162	4035.330764	-996.647569
4484.204506	-1007.778451	4035.431174	-994.623772
4484.102951	-1014.861739	4035.531583	-993.611874
4484.001399	-1030.040214	4035.631989	-995.635671
4483.899848	-1041.171096	4035.732395	-995.635671
4483.798299	-1048.254384	4035.832799	-996.647569
4483.696752	-1055.337672	4035.933201	-997.659467
4483.595206	-1057.361469	4036.033601	-997.659467
4483.493662	-1050.278181	4036.134000	-998.671366
4483.392120	-1041.171096	4036.234398	-998.671366
4483.290580	-1035.099706	4036.334794	-995.635671
4483.189041	-1034.087807	4036.435188	-993.611874
4483.087504	-1036.111604	4036.535581	-996.647569
4482.985969	-1045.218689	4036.635972	-997.659467
4482.884436	-1054.325774	4036.736361	-998.671366
4482.782904	-1065.456656	4036.836749	-1000.695162
4482.681374	-1074.563741	4036.937136	-997.659467
4482.579846	-1080.635131	4037.037521	-996.647569
4482.478319	-1081.647029	4037.137904	-995.635671
4482.376794	-1082.658928	4037.238286	-994.623772
4482.275271	-1082.658928	4037.338666	-997.659467
4482.173750	-1082.658928	4037.439044	-999.683264
4482.072230	-1084.682724	4037.539421	-1002.718959
4481.970712	-1086.706521	4037.639797	-1000.695162
4481.869196	-1087.718419	4037.740171	-1000.695162
4481.767682	-1091.766013	4037.840543	-1001.707061
4481.666169	-1095.813606	4037.940914	-1001.707061
4481.564658	-1098.849301	4038.041283	-997.659467
4481.463149	-1098.849301	4038.141650	-996.647569
4481.361641	-1097.837403	4038.242017	-995.635671
4481.260136	-1095.813606	4038.342381	-996.647569
4481.158632	-1093.789810	4038.442744	-997.659467
4481.057129	-1091.766013	4038.543105	-996.647569
4480.955629	-1094.801708	4038.643465	-998.671366
4480.854130	-1103.908793	4038.743824	-998.671366
4480.752632	-1115.039675	4038.844180	-997.659467
4480.651137	-1127.182455	4038.944535	-996.647569
4480.549643	-1136.289540	4039.044889	-996.647569
4480.448151	-1141.349032	4039.145241	-996.647569
4480.346661	-1141.349032	4039.245592	-996.647569
4480.245172	-1136.289540	4039.345941	-996.647569
4480.143685	-1129.206252	4039.446288	-996.647569
4480.042200	-1124.146760	4039.546634	-997.659467
4479.940717	-1122.122963	4039.646978	-996.647569
4479.839235	-1117.063471	4039.747321	-997.659467
4479.737755	-1116.051573	4039.847662	-997.659467
4479.636277	-1116.051573	4039.948002	-997.659467
4479.534800	-1113.015878	4040.048340	-997.659467
4479.433325	-1118.075370	4040.148677	-997.659467
4479.331852	-1122.122963	4040.249012	-995.635671
4479.230381	-1128.194353	4040.349345	-993.611874
4479.128911	-1139.325235	4040.449677	-993.611874
4479.027443	-1150.456117	4040.550008	-995.635671
4478.925977	-1152.479914	4040.650336	-995.635671
4478.824512	-1155.515609	4040.750664	-997.659467
4478.723049	-1152.479914	4040.850990	-999.683264
4478.621588	-1142.360930	4040.951314	-1000.695162
4478.520129	-1132.241947	4041.051637	-1000.695162
4478.418671	-1123.134862	4041.151958	-995.635671
4478.317215	-1117.063471	4041.252277	-994.623772
4478.215760	-1114.027776	4041.352596	-992.599976
4478.114308	-1118.075370	4041.452912	-993.611874
4478.012857	-1124.146760	4041.553227	-993.611874
4477.911408	-1126.170557	4041.653541	-997.659467
4477.809960	-1131.230048	4041.753853	-997.659467
4477.708514	-1131.230048	4041.854163	-997.659467
4477.607070	-1125.158658	4041.954472	-997.659467
4477.505628	-1116.051573	4042.054780	-997.659467
4477.404187	-1108.968285	4042.155086	-1000.695162
4477.302748	-1101.884996	4042.255390	-1001.707061
4477.201311	-1098.849301	4042.355693	-1003.730857
4477.099875	-1097.837403	4042.455994	-1003.730857
4476.998441	-1101.884996	4042.556294	-1004.742756
4476.897009	-1106.944488	4042.656592	-1004.742756
4476.795578	-1110.992081	4042.756889	-1002.718959
4476.694149	-1110.992081	4042.857184	-1000.695162
4476.592722	-1110.992081	4042.957478	-997.659467
4476.491297	-1103.908793	4043.057770	-994.623772
4476.389873	-1102.896895	4043.158061	-992.599976
4476.288451	-1099.861200	4043.258350	-992.599976
4476.187031	-1101.884996	4043.358638	-993.611874
4476.085612	-1104.920691	4043.458924	-992.599976
4475.984195	-1107.956386	4043.559208	-994.623772
4475.882780	-1112.003980	4043.659492	-995.635671
4475.781366	-1119.087268	4043.759773	-999.683264
4475.679954	-1126.170557	4043.860053	-998.671366
4475.578544	-1131.230048	4043.960332	-998.671366
4475.477136	-1134.265743	4044.060609	-998.671366
4475.375729	-1137.301439	4044.160885	-1000.695162
4475.274324	-1140.337134	4044.261159	-997.659467
4475.172920	-1140.337134	4044.361431	-995.635671
4475.071519	-1138.313337	4044.461702	-997.659467
4474.970119	-1136.289540	4044.561972	-993.611874
4474.868720	-1134.265743	4044.662240	-993.611874
4474.767324	-1131.230048	4044.762506	-993.611874
4474.665929	-1129.206252	4044.862771	-995.635671
4474.564535	-1129.206252	4044.963035	-995.635671
4474.463144	-1131.230048	4045.063297	-995.635671
4474.361754	-1137.301439	4045.163557	-997.659467
4474.260366	-1142.360930	4045.263816	-1000.695162
4474.158979	-1149.444219	4045.364074	-1000.695162
4474.057594	-1158.551304	4045.464330	-999.683264
4473.956211	-1160.575101	4045.564584	-999.683264
4473.854829	-1162.598897	4045.664838	-997.659467
4473.753450	-1159.563202	4045.765089	-997.659467
4473.652071	-1156.527507	4045.865339	-998.671366
4473.550695	-1151.468015	4045.965588	-996.647569
4473.449320	-1144.384727	4046.065835	-996.647569
4473.347947	-1140.337134	4046.166080	-997.659467
4473.246576	-1141.349032	4046.266324	-999.683264
4473.145206	-1140.337134	4046.366567	-1001.707061
4473.043838	-1145.396625	4046.466808	-997.659467
4472.942471	-1148.432320	4046.567048	-999.683264
4472.841107	-1152.479914	4046.667286	-998.671366
4472.739743	-1152.479914	4046.767522	-996.647569
4472.638382	-1156.527507	4046.867758	-996.647569
4472.537022	-1155.515609	4046.967991	-995.635671
4472.435664	-1154.503711	4047.068223	-995.635671
4472.334308	-1157.539406	4047.168454	-996.647569
4472.232953	-1162.598897	4047.268683	-995.635671
4472.131600	-1171.705983	4047.368911	-996.647569
4472.030249	-1178.789271	4047.469137	-996.647569
4471.928899	-1184.860661	4047.569362	-996.647569
4471.827551	-1190.932051	4047.669585	-994.623772
4471.726205	-1191.943950	4047.769807	-992.599976
4471.624860	-1189.920153	4047.870028	-992.599976
4471.523517	-1192.955848	4047.970247	-989.564281
4471.422176	-1190.932051	4048.070464	-987.540484
4471.320836	-1189.920153	4048.170680	-990.576179
4471.219498	-1190.932051	4048.270894	-990.576179
4471.118162	-1191.943950	4048.371107	-992.599976
4471.016827	-1191.943950	4048.471319	-992.599976
4470.915494	-1197.003442	4048.571529	-995.635671
4470.814163	-1204.086730	4048.671737	-997.659467
4470.712833	-1210.158120	4048.771945	-997.659467
4470.611505	-1215.217612	4048.872150	-998.671366
4470.510179	-1216.229511	4048.972354	-998.671366
4470.408854	-1213.193815	4049.072557	-998.671366
4470.307531	-1206.110527	4049.172758	-996.647569
4470.206210	-1198.015340	4049.272958	-997.659467
4470.104890	-1187.896356	4049.373156	-996.647569
4470.003572	-1177.777373	4049.473353	-994.623772
4469.902256	-1173.729779	4049.573549	-993.611874
4469.800941	-1170.694084	4049.673743	-994.623772
4469.699628	-1170.694084	4049.773935	-994.623772
4469.598317	-1172.717881	4049.874126	-993.611874
4469.497007	-1173.729779	4049.974316	-994.623772
4469.395699	-1178.789271	4050.074504	-996.647569
4469.294393	-1180.813068	4050.174690	-995.635671
4469.193088	-1183.848763	4050.274875	-998.671366
4469.091785	-1187.896356	4050.375059	-997.659467
4468.990483	-1189.920153	4050.475241	-996.647569
4468.889183	-1194.979645	4050.575422	-995.635671
4468.787885	-1197.003442	4050.675602	-994.623772
4468.686589	-1203.074832	4050.775780	-992.599976
4468.585294	-1212.181917	4050.875956	-990.576179
4468.484001	-1215.217612	4050.976131	-992.599976
