scanstart [nm]: 4875.000000
slope [nm/V]: 42.182656
k [N/m]: 0.074466
velocity [nm/s]: 100.000000
6:17:23 PM

4843.280553	537.390159	4147.270426	-296.413957
4843.141082	527.271178	4147.410180	-296.413957
4843.001612	514.116501	4147.549934	-295.402059
4842.862142	508.045112	4147.689687	-293.378262
4842.722672	508.045112	4147.829439	-293.378262
4842.583203	512.092705	4147.969191	-294.390161
4842.443734	512.092705	4148.108941	-293.378262
4842.304266	511.080807	4148.248691	-293.378262
4842.164798	506.021316	4148.388440	-294.390161
4842.025331	507.033214	4148.528188	-292.366364
4841.885864	498.938029	4148.667936	-294.390161
4841.746397	478.700065	4148.807682	-291.354466
4841.606931	452.390713	4148.947428	-294.390161
4841.467466	428.105157	4149.087173	-294.390161
4841.328000	410.902888	4149.226917	-296.413957
4841.188535	404.831499	4149.366661	-295.402059
4841.049071	397.748212	4149.506403	-296.413957
4840.909607	390.664924	4149.646145	-295.402059
4840.770144	382.569739	4149.785886	-293.378262
4840.630681	376.498350	4149.925626	-294.390161
4840.491218	372.450757	4150.065366	-292.366364
4840.351756	370.426961	4150.205104	-295.402059
4840.212294	362.331775	4150.344842	-293.378262
4840.072832	350.188997	4150.484579	-293.378262
4839.933372	335.010525	4150.624316	-292.366364
4839.793911	316.796357	4150.764051	-294.390161
4839.654451	295.546496	4150.903786	-296.413957
4839.514991	282.391819	4151.043520	-296.413957
4839.375532	270.249041	4151.183253	-298.437754
4839.236073	259.118161	4151.322985	-296.413957
4839.096615	247.987281	4151.462716	-294.390161
4838.957157	237.868299	4151.602447	-293.378262
4838.817699	232.808808	4151.742177	-290.342568
4838.678242	224.713623	4151.881906	-294.390161
4838.538786	223.701724	4152.021635	-296.413957
4838.399330	215.606539	4152.161362	-298.437754
4838.259874	201.439964	4152.301089	-295.402059
4838.120418	181.202000	4152.440815	-295.402059
4837.980964	158.940240	4152.580540	-290.342568
4837.841509	141.737971	4152.720264	-288.318771
4837.702055	127.571396	4152.859988	-292.366364
4837.562601	121.500007	4152.999711	-293.378262
4837.423148	117.452414	4153.139433	-295.402059
4837.283695	117.452414	4153.279154	-296.413957
4837.144243	113.404821	4153.418875	-295.402059
4837.004791	108.345330	4153.558594	-294.390161
4836.865339	100.250145	4153.698313	-297.425855
4836.725888	85.071672	4153.838031	-296.413957
4836.586438	66.857504	4153.977749	-295.402059
4836.446988	44.595744	4154.117465	-297.425855
4836.307538	23.345881	4154.257181	-298.437754
4836.168088	11.203103	4154.396896	-298.437754
4836.028639	9.179306	4154.536610	-296.413957
4835.889191	13.226899	4154.676324	-296.413957
4835.749743	14.238797	4154.816036	-294.390161
4835.610295	16.262594	4154.955748	-291.354466
4835.470848	12.215001	4155.095459	-291.354466
4835.331401	5.131713	4155.235169	-293.378262
4835.191955	-1.951574	4155.374879	-293.378262
4835.052509	-14.094353	4155.514588	-294.390161
4834.913063	-32.308520	4155.654296	-293.378262
4834.773618	-53.558383	4155.794003	-293.378262
4834.634173	-72.784449	4155.933709	-293.378262
4834.494729	-87.962922	4156.073415	-294.390161
4834.355285	-94.034311	4156.213120	-294.390161
4834.215842	-92.010515	4156.352824	-296.413957
4834.076399	-90.998617	4156.492527	-296.413957
4833.936956	-85.939126	4156.632229	-294.390161
4833.797514	-88.974820	4156.771931	-294.390161
4833.658072	-97.070006	4156.911632	-291.354466
4833.518631	-108.200886	4157.051332	-291.354466
4833.379190	-124.391258	4157.191032	-294.390161
4833.239750	-140.581630	4157.330730	-293.378262
4833.100310	-159.807696	4157.470428	-293.378262
4832.960870	-174.986169	4157.610125	-293.378262
4832.821431	-186.117050	4157.749821	-295.402059
4832.681992	-189.152744	4157.889517	-294.390161
4832.542554	-195.224134	4158.029212	-296.413957
4832.403116	-197.247930	4158.168906	-296.413957
4832.263678	-203.319320	4158.308599	-293.378262
4832.124241	-212.426404	4158.448291	-292.366364
4831.984805	-223.557284	4158.587983	-290.342568
4831.845368	-233.676267	4158.727674	-290.342568
4831.705933	-243.795249	4158.867364	-294.390161
4831.566497	-253.914231	4159.007053	-298.437754
4831.427062	-264.033214	4159.146742	-300.461550
4831.287628	-273.140298	4159.286430	-298.437754
4831.148193	-274.152196	4159.426117	-295.402059
4831.008760	-275.164094	4159.565803	-291.354466
4830.869326	-271.116501	4159.705489	-290.342568
4830.729894	-272.128399	4159.845173	-289.330669
4830.590461	-277.187891	4159.984857	-296.413957
4830.451029	-285.283077	4160.124540	-296.413957
4830.311597	-295.402059	4160.264223	-295.402059
4830.172166	-309.568634	4160.403905	-292.366364
4830.032735	-329.806599	4160.543585	-289.330669
4829.893305	-340.937480	4160.683266	-288.318771
4829.753875	-347.008869	4160.822945	-289.330669
4829.614446	-350.044564	4160.962623	-292.366364
4829.475016	-353.080259	4161.102301	-292.366364
4829.335588	-354.092157	4161.241978	-294.390161
4829.196160	-355.104055	4161.381655	-291.354466
4829.056732	-351.056462	4161.521330	-292.366364
4828.917304	-347.008869	4161.661005	-294.390161
4828.777877	-344.985073	4161.800679	-297.425855
4828.638451	-345.996971	4161.940352	-299.449652
4828.499024	-353.080259	4162.080025	-297.425855
4828.359599	-360.163546	4162.219696	-298.437754
4828.220173	-369.270631	4162.359367	-298.437754
4828.080748	-375.342020	4162.499038	-294.390161
4827.941324	-378.377715	4162.638707	-292.366364
4827.801900	-382.425308	4162.778376	-289.330669
4827.662476	-385.461003	4162.918044	-287.306873
4827.523053	-390.520494	4163.057711	-288.318771
4827.383630	-392.544290	4163.197377	-289.330669
4827.244207	-397.603782	4163.337043	-288.318771
4827.104785	-401.651375	4163.476708	-286.294975
4826.965364	-410.758459	4163.616372	-285.283077
4826.825943	-418.853645	4163.756035	-283.259280
4826.686522	-426.948831	4163.895698	-287.306873
4826.547101	-430.996424	4164.035360	-290.342568
4826.407682	-435.044017	4164.175021	-293.378262
4826.268262	-438.079712	4164.314681	-296.413957
4826.128843	-441.115407	4164.454341	-295.402059
4825.989424	-445.163000	4164.593999	-293.378262
4825.850006	-452.246287	4164.733658	-291.354466
4825.710588	-460.341473	4164.873315	-291.354466
4825.571171	-461.353372	4165.012971	-292.366364
4825.431753	-459.329575	4165.152627	-292.366364
4825.292337	-453.258186	4165.292282	-293.378262
4825.152921	-456.293880	4165.431937	-294.390161
4825.013505	-465.400965	4165.571590	-291.354466
4824.874089	-482.603235	4165.711243	-289.330669
4824.734674	-499.805506	4165.850895	-291.354466
4824.595260	-514.983980	4165.990546	-292.366364
4824.455846	-517.007776	4166.130197	-294.390161
4824.316432	-507.900692	4166.269847	-292.366364
4824.177019	-497.781709	4166.409496	-291.354466
4824.037606	-483.615133	4166.549144	-291.354466
4823.898193	-479.567540	4166.688791	-289.330669
4823.758781	-474.508049	4166.828438	-291.354466
4823.619369	-474.508049	4166.968084	-290.342568
4823.479958	-469.448558	4167.107729	-294.390161
4823.340547	-467.424761	4167.247374	-295.402059
4823.201137	-473.496151	4167.387018	-291.354466
4823.061727	-485.638930	4167.526661	-291.354466
4822.922317	-497.781709	4167.666303	-290.342568
4822.782908	-500.817404	4167.805945	-293.378262
4822.643499	-485.638930	4167.945585	-291.354466
4822.504091	-457.305779	4168.085225	-292.366364
4822.364683	-430.996424	4168.224865	-292.366364
4822.225275	-414.806052	4168.364503	-289.330669
4822.085868	-414.806052	4168.504141	-290.342568
4821.946461	-424.925035	4168.643778	-290.342568
4821.807055	-432.008322	4168.783415	-290.342568
4821.667649	-435.044017	4168.923050	-293.378262
4821.528243	-430.996424	4169.062685	-294.390161
4821.388838	-424.925035	4169.202319	-295.402059
4821.249433	-420.877441	4169.341952	-296.413957
4821.110029	-417.841747	4169.481585	-296.413957
4820.970625	-418.853645	4169.621217	-292.366364
4820.831222	-417.841747	4169.760848	-291.354466
4820.691818	-412.782255	4169.900478	-288.318771
4820.552416	-409.746561	4170.040108	-286.294975
4820.413014	-408.734662	4170.179737	-286.294975
4820.273612	-411.770357	4170.319365	-287.306873
4820.134210	-420.877441	4170.458992	-288.318771
4819.994809	-430.996424	4170.598619	-289.330669
4819.855408	-439.091610	4170.738245	-285.283077
4819.716008	-448.198694	4170.877870	-286.294975
4819.576608	-451.234389	4171.017495	-284.271178
4819.437209	-455.281982	4171.157118	-286.294975
4819.297810	-457.305779	4171.296741	-288.318771
4819.158411	-454.270084	4171.436364	-292.366364
4819.019013	-446.174898	4171.575985	-293.378262
4818.879615	-439.091610	4171.715606	-293.378262
4818.740218	-433.020221	4171.855226	-293.378262
4818.600821	-442.127305	4171.994845	-294.390161
4818.461424	-454.270084	4172.134464	-293.378262
4818.322028	-466.412863	4172.274082	-292.366364
4818.182632	-475.519947	4172.413699	-291.354466
4818.043237	-481.591337	4172.553315	-289.330669
4817.903842	-487.662727	4172.692931	-288.318771
4817.764447	-489.686523	4172.832545	-291.354466
4817.625053	-491.710320	4172.972160	-289.330669
4817.485659	-489.686523	4173.111773	-291.354466
4817.346266	-486.650828	4173.251386	-292.366364
4817.206873	-478.555642	4173.390998	-293.378262
4817.067481	-478.555642	4173.530609	-291.354466
4816.928088	-479.567540	4173.670219	-292.366364
4816.788697	-490.698421	4173.809829	-292.366364
4816.649305	-498.793607	4173.949438	-294.390161
4816.509914	-506.888794	4174.089047	-293.378262
4816.370524	-506.888794	4174.228654	-294.390161
4816.231134	-501.829302	4174.368261	-296.413957
4816.091744	-483.615133	4174.507867	-296.413957
4815.952355	-461.353372	4174.647472	-294.390161
4815.812966	-439.091610	4174.787077	-295.402059
4815.673577	-427.960729	4174.926681	-296.413957
4815.534189	-422.901238	4175.066284	-297.425855
4815.394801	-428.972628	4175.205887	-298.437754
4815.255414	-433.020221	4175.345488	-298.437754
4815.116027	-437.067814	4175.485089	-296.413957
4814.976641	-435.044017	4175.624690	-293.378262
4814.837254	-438.079712	4175.764289	-293.378262
4814.697869	-440.103508	4175.903888	-291.354466
4814.558483	-446.174898	4176.043486	-292.366364
4814.419098	-451.234389	4176.183084	-292.366364
4814.279714	-450.222491	4176.322680	-292.366364
4814.140330	-441.115407	4176.462276	-294.390161
4814.000946	-424.925035	4176.601871	-294.390161
4813.861563	-405.698968	4176.741466	-297.425855
4813.722180	-387.484799	4176.881060	-301.473448
4813.582797	-385.461003	4177.020653	-300.461550
4813.443415	-382.425308	4177.160245	-298.437754
4813.304034	-387.484799	4177.299837	-296.413957
4813.164652	-392.544290	4177.439427	-295.402059
4813.025271	-395.579985	4177.579018	-294.390161
4812.885891	-396.591883	4177.718607	-296.413957
4812.746511	-396.591883	4177.858196	-297.425855
4812.607131	-395.579985	4177.997784	-295.402059
4812.467752	-395.579985	4178.137371	-294.390161
4812.328373	-394.568087	4178.276958	-291.354466
4812.188994	-393.556189	4178.416543	-292.366364
4812.049616	-394.568087	4178.556129	-290.342568
4811.910238	-396.591883	4178.695713	-291.354466
4811.770861	-402.663273	4178.835297	-294.390161
4811.631484	-403.675171	4178.974880	-296.413957
4811.492107	-408.734662	4179.114462	-298.437754
4811.352731	-412.782255	4179.254043	-297.425855
4811.213355	-416.829848	4179.393624	-296.413957
4811.073980	-418.853645	4179.533204	-290.342568
4810.934605	-424.925035	4179.672784	-287.306873
4810.795231	-420.877441	4179.812362	-289.330669
4810.655856	-416.829848	4179.951940	-290.342568
4810.516483	-407.722764	4180.091517	-292.366364
4810.377109	-407.722764	4180.231094	-294.390161
4810.237736	-410.758459	4180.370670	-291.354466
4810.098364	-419.865543	4180.510245	-291.354466
4809.958991	-424.925035	4180.649819	-289.330669
4809.819620	-422.901238	4180.789393	-294.390161
4809.680248	-415.817950	4180.928966	-294.390161
4809.540877	-407.722764	4181.068538	-293.378262
4809.401507	-403.675171	4181.208110	-289.330669
4809.262136	-401.651375	4181.347681	-289.330669
4809.122767	-403.675171	4181.487251	-288.318771
4808.983397	-404.687069	4181.626820	-289.330669
4808.844028	-401.651375	4181.766389	-289.330669
4808.704659	-396.591883	4181.905957	-289.330669
4808.565291	-388.496697	4182.045524	-289.330669
4808.425923	-384.449104	4182.185091	-288.318771
4808.286556	-381.413410	4182.324656	-289.330669
4808.147189	-384.449104	4182.464222	-290.342568
4808.007822	-385.461003	4182.603786	-294.390161
4807.868456	-384.449104	4182.743350	-298.437754
4807.729090	-385.461003	4182.882913	-296.413957
4807.589724	-380.401511	4183.022475	-292.366364
4807.450359	-375.342020	4183.162037	-289.330669
4807.310994	-373.318224	4183.301598	-284.271178
4807.171630	-372.306325	4183.441158	-284.271178
4807.032266	-376.353918	4183.580717	-287.306873
4806.892903	-379.389613	4183.720276	-290.342568
4806.753539	-381.413410	4183.859834	-293.378262
4806.614177	-381.413410	4183.999392	-293.378262
4806.474814	-381.413410	4184.138948	-294.390161
4806.335452	-380.401511	4184.278504	-292.366364
4806.196091	-381.413410	4184.418059	-293.378262
4806.056730	-384.449104	4184.557614	-293.378262
4805.917369	-385.461003	4184.697168	-296.413957
4805.778008	-383.437206	4184.836721	-293.378262
4805.638648	-381.413410	4184.976274	-292.366364
4805.499289	-376.353918	4185.115825	-289.330669
4805.359929	-379.389613	4185.255376	-289.330669
4805.220570	-378.377715	4185.394927	-290.342568
4805.081212	-380.401511	4185.534476	-292.366364
4804.941854	-379.389613	4185.674025	-294.390161
4804.802496	-377.365817	4185.813574	-293.378262
4804.663139	-379.389613	4185.953121	-292.366364
4804.523782	-382.425308	4186.092668	-291.354466
4804.384425	-387.484799	4186.232214	-289.330669
4804.245069	-389.508596	4186.371760	-290.342568
4804.105714	-390.520494	4186.511304	-294.390161
4803.966358	-389.508596	4186.650849	-297.425855
4803.827003	-382.425308	4186.790392	-298.437754
4803.687649	-377.365817	4186.929935	-297.425855
4803.548294	-375.342020	4187.069477	-296.413957
4803.408941	-378.377715	4187.209018	-296.413957
4803.269587	-378.377715	4187.348558	-294.390161
4803.130234	-381.413410	4187.488098	-292.366364
4802.990881	-383.437206	4187.627638	-293.378262
4802.851529	-382.425308	4187.767176	-297.425855
4802.712177	-380.401511	4187.906714	-294.390161
4802.572826	-375.342020	4188.046251	-295.402059
4802.433475	-372.306325	4188.185787	-292.366364
4802.294124	-366.234936	4188.325323	-291.354466
4802.154773	-363.199241	4188.464858	-291.354466
4802.015424	-359.151648	4188.604393	-293.378262
4801.876074	-360.163546	4188.743926	-296.413957
4801.736725	-360.163546	4188.883459	-294.390161
4801.597376	-363.199241	4189.022992	-292.366364
4801.458028	-365.223038	4189.162523	-288.318771
4801.318679	-365.223038	4189.302054	-287.306873
4801.179332	-366.234936	4189.441584	-290.342568
4801.039985	-363.199241	4189.581114	-292.366364
4800.900638	-361.175445	4189.720643	-292.366364
4800.761291	-356.115953	4189.860171	-294.390161
4800.621945	-353.080259	4189.999698	-295.402059
4800.482599	-353.080259	4190.139225	-294.390161
4800.343254	-353.080259	4190.278751	-293.378262
4800.203909	-354.092157	4190.418276	-292.366364
4800.064564	-354.092157	4190.557801	-293.378262
4799.925220	-354.092157	4190.697325	-293.378262
4799.785876	-358.139750	4190.836849	-292.366364
4799.646533	-364.211139	4190.976371	-292.366364
4799.507190	-367.246834	4191.115893	-294.390161
4799.367847	-367.246834	4191.255414	-295.402059
4799.228505	-366.234936	4191.394935	-296.413957
4799.089163	-364.211139	4191.534455	-295.402059
4798.949822	-363.199241	4191.673974	-294.390161
4798.810480	-363.199241	4191.813493	-292.366364
4798.671140	-363.199241	4191.953011	-291.354466
4798.531799	-363.199241	4192.092528	-289.330669
4798.392459	-351.056462	4192.232044	-288.318771
4798.253120	-340.937480	4192.371560	-291.354466
4798.113780	-329.806599	4192.511075	-291.354466
4797.974442	-325.759006	4192.650590	-294.390161
4797.835103	-322.723311	4192.790103	-291.354466
4797.695765	-326.770904	4192.929617	-292.366364
4797.556427	-325.759006	4193.069129	-292.366364
4797.417090	-327.782803	4193.208641	-291.354466
4797.277753	-326.770904	4193.348152	-291.354466
4797.138416	-326.770904	4193.487662	-292.366364
4796.999080	-329.806599	4193.627172	-292.366364
4796.859744	-330.818497	4193.766681	-291.354466
4796.720409	-329.806599	4193.906189	-292.366364
4796.581074	-329.806599	4194.045697	-293.378262
4796.441739	-327.782803	4194.185204	-290.342568
4796.302405	-328.794701	4194.324710	-290.342568
4796.163071	-330.818497	4194.464216	-289.330669
4796.023737	-331.830396	4194.603721	-290.342568
4795.884404	-331.830396	4194.743225	-293.378262
4795.745071	-330.818497	4194.882729	-293.378262
4795.605739	-328.794701	4195.022232	-296.413957
4795.466407	-325.759006	4195.161734	-294.390161
4795.327075	-327.782803	4195.301235	-294.390161
4795.187744	-328.794701	4195.440736	-293.378262
4795.048413	-330.818497	4195.580237	-292.366364
4794.909083	-328.794701	4195.719736	-291.354466
4794.769753	-325.759006	4195.859235	-292.366364
4794.630423	-325.759006	4195.998733	-293.378262
4794.491093	-324.747108	4196.138231	-294.390161
4794.351764	-323.735210	4196.277728	-292.366364
4794.212436	-323.735210	4196.417224	-289.330669
4794.073107	-323.735210	4196.556719	-286.294975
4793.933780	-322.723311	4196.696214	-284.271178
4793.794452	-321.711413	4196.835709	-285.283077
4793.655125	-322.723311	4196.975202	-288.318771
4793.515798	-325.759006	4197.114695	-288.318771
4793.376472	-330.818497	4197.254187	-294.390161
4793.237146	-331.830396	4197.393679	-294.390161
4793.097820	-333.854192	4197.533170	-292.366364
4792.958495	-330.818497	4197.672660	-291.354466
4792.819170	-330.818497	4197.812149	-287.306873
4792.679845	-327.782803	4197.951638	-287.306873
4792.540521	-330.818497	4198.091126	-286.294975
4792.401197	-331.830396	4198.230614	-286.294975
4792.261874	-333.854192	4198.370101	-286.294975
4792.122551	-333.854192	4198.509587	-286.294975
4791.983228	-333.854192	4198.649072	-289.330669
4791.843906	-332.842294	4198.788557	-287.306873
4791.704584	-333.854192	4198.928041	-288.318771
4791.565263	-333.854192	4199.067525	-288.318771
4791.425942	-332.842294	4199.207008	-290.342568
4791.286621	-330.818497	4199.346490	-289.330669
4791.147300	-332.842294	4199.485972	-291.354466
4791.007980	-331.830396	4199.625452	-292.366364
4790.868661	-334.866090	4199.764933	-288.318771
4790.729341	-334.866090	4199.904412	-287.306873
4790.590022	-334.866090	4200.043891	-285.283077
4790.450704	-334.866090	4200.183369	-285.283077
4790.311386	-334.866090	4200.322847	-285.283077
4790.172068	-331.830396	4200.462324	-289.330669
4790.032750	-334.866090	4200.601800	-290.342568
4789.893433	-331.830396	4200.741276	-289.330669
4789.754117	-330.818497	4200.880751	-285.283077
4789.614800	-332.842294	4201.020225	-286.294975
4789.475484	-334.866090	4201.159699	-287.306873
4789.336169	-336.889887	4201.299172	-287.306873
4789.196854	-336.889887	4201.438644	-287.306873
4789.057539	-338.913683	4201.578116	-285.283077
4788.918224	-339.925582	4201.717586	-285.283077
4788.778910	-339.925582	4201.857057	-286.294975
4788.639597	-342.961276	4201.996527	-288.318771
4788.500283	-344.985073	4202.135996	-288.318771
4788.360970	-345.996971	4202.275464	-291.354466
4788.221658	-342.961276	4202.414932	-289.330669
4788.082345	-342.961276	4202.554399	-289.330669
4787.943033	-339.925582	4202.693865	-287.306873
4787.803722	-338.913683	4202.833331	-286.294975
4787.664411	-333.854192	4202.972796	-287.306873
4787.525100	-335.877989	4203.112260	-288.318771
4787.385790	-337.901785	4203.251724	-289.330669
4787.246479	-339.925582	4203.391187	-292.366364
4787.107170	-341.949378	4203.530650	-294.390161
4786.967860	-341.949378	4203.670112	-295.402059
4786.828552	-337.901785	4203.809573	-293.378262
4786.689243	-337.901785	4203.949033	-289.330669
