scanstart [nm]: 4875.000000
slope [nm/V]: 42.182656
k [N/m]: 0.074466
velocity [nm/s]: 400.000000
6:26:42 PM

4841.759744	206.499455	4244.504844	-811.470177
4841.639547	202.451862	4244.624727	-811.470177
4841.519351	201.439964	4244.744609	-810.458279
4841.399156	204.475659	4244.864490	-809.446380
4841.278962	207.511353	4244.984370	-811.470177
4841.158769	209.535150	4245.104249	-812.482075
4841.038578	212.570844	4245.224128	-812.482075
4840.918387	215.606539	4245.344005	-813.493974
4840.798197	222.689826	4245.463882	-812.482075
4840.678008	228.761215	4245.583758	-814.505872
4840.557820	232.808808	4245.703633	-814.505872
4840.437634	235.844503	4245.823507	-815.517770
4840.317448	237.868299	4245.943380	-815.517770
4840.197263	235.844503	4246.063252	-815.517770
4840.077079	233.820706	4246.183124	-816.529668
4839.956896	228.761215	4246.302994	-814.505872
4839.836715	217.630335	4246.422864	-815.517770
4839.716534	206.499455	4246.542733	-814.505872
4839.596354	192.332880	4246.662601	-812.482075
4839.476176	178.166306	4246.782468	-812.482075
4839.355998	161.975935	4246.902334	-809.446380
4839.235821	151.856953	4247.022199	-808.434482
4839.115645	138.702276	4247.142064	-810.458279
4838.995471	128.583294	4247.261928	-806.410685
4838.875297	120.488109	4247.381790	-807.422584
4838.755124	114.416719	4247.501652	-805.398787
4838.634953	110.369127	4247.621513	-804.386889
4838.514782	107.333432	4247.741374	-804.386889
4838.394612	103.285839	4247.861233	-804.386889
4838.274444	99.238246	4247.981091	-803.374990
4838.154276	96.202552	4248.100949	-804.386889
4838.034109	90.131163	4248.220806	-807.422584
4837.913943	80.012181	4248.340661	-807.422584
4837.793779	71.916995	4248.460516	-809.446380
4837.673615	60.786115	4248.580371	-811.470177
4837.553452	49.655235	4248.700224	-812.482075
4837.433291	37.512456	4248.820076	-814.505872
4837.313130	24.357779	4248.939928	-817.541567
4837.192970	12.215001	4249.059778	-816.529668
4837.072812	-2.963472	4249.179628	-816.529668
4836.952654	-14.094353	4249.299477	-817.541567
4836.832497	-24.213335	4249.419325	-818.553465
4836.712342	-34.332317	4249.539173	-814.505872
4836.592187	-43.439401	4249.659019	-814.505872
4836.472033	-50.522688	4249.778864	-812.482075
4836.351881	-53.558383	4249.898709	-812.482075
4836.231729	-59.629772	4250.018553	-810.458279
4836.111578	-64.689263	4250.138396	-809.446380
4835.991428	-71.772551	4250.258238	-807.422584
4835.871280	-75.820144	4250.378079	-808.434482
4835.751132	-83.915329	4250.497920	-810.458279
4835.630985	-92.010515	4250.617759	-811.470177
4835.510839	-106.177090	4250.737598	-809.446380
4835.390695	-118.319869	4250.857436	-809.446380
4835.270551	-134.510240	4250.977272	-809.446380
4835.150408	-150.700612	4251.097109	-807.422584
4835.030266	-167.902882	4251.216944	-809.446380
4834.910126	-184.093253	4251.336778	-808.434482
4834.789986	-196.236032	4251.456612	-806.410685
4834.669847	-210.402607	4251.576444	-807.422584
4834.549709	-219.509691	4251.696276	-804.386889
4834.429572	-230.640572	4251.816107	-804.386889
4834.309437	-236.711961	4251.935937	-803.374990
4834.189302	-244.807147	4252.055767	-802.363092
4834.069168	-251.890435	4252.175595	-802.363092
4833.949035	-254.926129	4252.295423	-803.374990
4833.828903	-264.033214	4252.415250	-804.386889
4833.708772	-270.104603	4252.535075	-804.386889
4833.588642	-279.211687	4252.654900	-807.422584
4833.468513	-284.271178	4252.774725	-809.446380
4833.348386	-297.425855	4252.894548	-810.458279
4833.228259	-306.532940	4253.014371	-810.458279
4833.108133	-316.651922	4253.134192	-810.458279
4832.988008	-325.759006	4253.254013	-809.446380
4832.867884	-333.854192	4253.373833	-811.470177
4832.747761	-345.996971	4253.493652	-811.470177
4832.627639	-354.092157	4253.613470	-808.434482
4832.507518	-361.175445	4253.733288	-805.398787
4832.387398	-369.270631	4253.853104	-806.410685
4832.267278	-375.342020	4253.972920	-806.410685
4832.147160	-379.389613	4254.092735	-805.398787
4832.027043	-383.437206	4254.212549	-804.386889
4831.906927	-387.484799	4254.332362	-804.386889
4831.786812	-390.520494	4254.452175	-805.398787
4831.666698	-393.556189	4254.571986	-809.446380
4831.546585	-400.639476	4254.691797	-809.446380
4831.426472	-403.675171	4254.811607	-809.446380
4831.306361	-411.770357	4254.931416	-806.410685
4831.186251	-423.913136	4255.051224	-809.446380
4831.066142	-438.079712	4255.171031	-808.434482
4830.946033	-450.222491	4255.290838	-807.422584
4830.825926	-467.424761	4255.410643	-807.422584
4830.705820	-482.603235	4255.530448	-804.386889
4830.585715	-496.769811	4255.650252	-803.374990
4830.465610	-512.960183	4255.770055	-806.410685
4830.345507	-524.091064	4255.889858	-804.386889
4830.225404	-536.233843	4256.009659	-804.386889
4830.105303	-546.352826	4256.129460	-804.386889
4829.985202	-553.436114	4256.249260	-807.422584
4829.865103	-561.531300	4256.369059	-809.446380
4829.745004	-569.626486	4256.488857	-810.458279
4829.624907	-574.685977	4256.608654	-812.482075
4829.504810	-580.757367	4256.728450	-812.482075
4829.384715	-588.852553	4256.848246	-811.470177
4829.264620	-594.923943	4256.968041	-813.493974
4829.144526	-605.042926	4257.087835	-813.493974
4829.024434	-616.173807	4257.207628	-810.458279
4828.904342	-626.292790	4257.327420	-812.482075
4828.784251	-634.387976	4257.447212	-812.482075
4828.664162	-647.542653	4257.567002	-808.434482
4828.544073	-656.649738	4257.686792	-808.434482
4828.423985	-664.744924	4257.806581	-808.434482
4828.303898	-673.852009	4257.926369	-807.422584
4828.183812	-680.935297	4258.046157	-805.398787
4828.063727	-687.006687	4258.165943	-806.410685
4827.943643	-695.101873	4258.285729	-807.422584
4827.823561	-702.185161	4258.405514	-810.458279
4827.703479	-710.280347	4258.525298	-807.422584
4827.583397	-715.339839	4258.645081	-810.458279
4827.463317	-721.411228	4258.764863	-809.446380
4827.343238	-730.518313	4258.884645	-811.470177
4827.223160	-736.589703	4259.004425	-810.458279
4827.103083	-741.649194	4259.124205	-812.482075
4826.983007	-748.732482	4259.243984	-812.482075
4826.862932	-756.827669	4259.363763	-814.505872
4826.742857	-765.934753	4259.483540	-814.505872
4826.622784	-775.041838	4259.603317	-812.482075
4826.502712	-786.172719	4259.723092	-809.446380
4826.382640	-793.256007	4259.842867	-809.446380
4826.262570	-803.374990	4259.962641	-807.422584
4826.142500	-813.493974	4260.082415	-808.434482
4826.022432	-818.553465	4260.202187	-807.422584
4825.902365	-822.601058	4260.321959	-803.374990
4825.782298	-827.660550	4260.441730	-803.374990
4825.662232	-828.672448	4260.561500	-804.386889
4825.542168	-831.708143	4260.681269	-804.386889
4825.422104	-831.708143	4260.801037	-808.434482
4825.302041	-833.731940	4260.920805	-809.446380
4825.181980	-836.767635	4261.040571	-808.434482
4825.061919	-838.791431	4261.160337	-811.470177
4824.941859	-845.874719	4261.280103	-814.505872
4824.821800	-851.946109	4261.399867	-814.505872
4824.701742	-861.053194	4261.519630	-815.517770
4824.581685	-868.136482	4261.639393	-816.529668
4824.461629	-879.267364	4261.759155	-813.493974
4824.341574	-885.338754	4261.878916	-815.517770
4824.221520	-894.445838	4261.998676	-810.458279
4824.101467	-901.529127	4262.118435	-811.470177
4823.981415	-907.600516	4262.238194	-808.434482
4823.861364	-915.695703	4262.357952	-806.410685
4823.741313	-918.731398	4262.477709	-805.398787
4823.621264	-923.790890	4262.597465	-805.398787
4823.501216	-928.850381	4262.717220	-803.374990
4823.381168	-931.886076	4262.836975	-803.374990
4823.261122	-935.933669	4262.956728	-805.398787
4823.141076	-936.945568	4263.076481	-805.398787
4823.021032	-936.945568	4263.196233	-806.410685
4822.900988	-939.981263	4263.315985	-806.410685
4822.780946	-939.981263	4263.435735	-809.446380
4822.660904	-943.016958	4263.555485	-809.446380
4822.540863	-946.052653	4263.675234	-810.458279
4822.420824	-950.100246	4263.794982	-808.434482
4822.300785	-953.135941	4263.914729	-808.434482
4822.180747	-960.219229	4264.034475	-807.422584
4822.060710	-965.278721	4264.154221	-805.398787
4821.940674	-973.373907	4264.273966	-804.386889
4821.820639	-979.445297	4264.393710	-804.386889
4821.700605	-985.516687	4264.513453	-800.339296
4821.580572	-992.599976	4264.633195	-800.339296
4821.460540	-995.635671	4264.752937	-801.351194
4821.340509	-1001.707061	4264.872678	-801.351194
4821.220478	-1004.742756	4264.992418	-799.327397
4821.100449	-1006.766552	4265.112157	-801.351194
4820.980421	-1009.802247	4265.231895	-802.363092
4820.860393	-1011.826044	4265.351633	-803.374990
4820.740367	-1016.885536	4265.471369	-806.410685
4820.620341	-1018.909332	4265.591105	-807.422584
4820.500317	-1022.956926	4265.710841	-807.422584
4820.380293	-1029.028316	4265.830575	-806.410685
4820.260270	-1031.052112	4265.950308	-807.422584
4820.140248	-1035.099706	4266.070041	-806.410685
4820.020228	-1036.111604	4266.189773	-807.422584
4819.900208	-1040.159197	4266.309504	-807.422584
4819.780189	-1043.194892	4266.429235	-805.398787
4819.660171	-1041.171096	4266.548964	-803.374990
4819.540154	-1041.171096	4266.668693	-801.351194
4819.420138	-1042.182994	4266.788421	-803.374990
4819.300123	-1044.206791	4266.908148	-804.386889
4819.180108	-1048.254384	4267.027875	-805.398787
4819.060095	-1050.278181	4267.147600	-803.374990
4818.940083	-1055.337672	4267.267325	-805.398787
4818.820071	-1057.361469	4267.387049	-806.410685
4818.700061	-1062.420961	4267.506772	-808.434482
4818.580051	-1063.432859	4267.626494	-810.458279
4818.460043	-1065.456656	4267.746216	-812.482075
4818.340035	-1067.480453	4267.865937	-813.493974
4818.220029	-1069.504249	4267.985657	-816.529668
4818.100023	-1069.504249	4268.105376	-815.517770
4817.980018	-1070.516148	4268.225094	-814.505872
4817.860014	-1071.528046	4268.344812	-813.493974
4817.740011	-1070.516148	4268.464529	-812.482075
4817.620009	-1076.587538	4268.584245	-812.482075
4817.500008	-1078.611334	4268.703960	-806.410685
4817.380008	-1086.706521	4268.823675	-807.422584
4817.260009	-1091.766013	4268.943388	-806.410685
4817.140010	-1099.861200	4269.063101	-804.386889
4817.020013	-1108.968285	4269.182813	-802.363092
4816.900017	-1114.027776	4269.302525	-803.374990
4816.780021	-1122.122963	4269.422235	-802.363092
4816.660027	-1128.194353	4269.541945	-803.374990
4816.540033	-1134.265743	4269.661654	-804.386889
4816.420040	-1137.301439	4269.781362	-806.410685
4816.300049	-1141.349032	4269.901069	-808.434482
4816.180058	-1143.372829	4270.020776	-809.446380
4816.060068	-1148.432320	4270.140482	-810.458279
4815.940079	-1152.479914	4270.260187	-809.446380
4815.820091	-1156.527507	4270.379891	-809.446380
4815.700104	-1163.610796	4270.499595	-809.446380
4815.580118	-1170.694084	4270.619297	-810.458279
4815.460133	-1178.789271	4270.738999	-810.458279
4815.340148	-1183.848763	4270.858700	-808.434482
4815.220165	-1191.943950	4270.978400	-806.410685
4815.100183	-1195.991543	4271.098100	-803.374990
4814.980201	-1201.051035	4271.217799	-804.386889
4814.860220	-1207.122425	4271.337497	-803.374990
4814.740241	-1211.170019	4271.457194	-803.374990
4814.620262	-1211.170019	4271.576890	-801.351194
4814.500284	-1213.193815	4271.696586	-802.363092
4814.380307	-1213.193815	4271.816281	-805.398787
4814.260332	-1215.217612	4271.935975	-807.422584
4814.140356	-1215.217612	4272.055668	-806.410685
4814.020382	-1219.265206	4272.175361	-807.422584
4813.900409	-1220.277104	4272.295052	-808.434482
4813.780437	-1226.348494	4272.414743	-809.446380
4813.660466	-1228.372291	4272.534434	-806.410685
4813.540495	-1233.431783	4272.654123	-806.410685
4813.420526	-1241.526970	4272.773812	-806.410685
4813.300557	-1248.610258	4272.893499	-806.410685
4813.180590	-1253.669750	4273.013186	-806.410685
4813.060623	-1257.717344	4273.132873	-805.398787
4812.940657	-1264.800632	4273.252558	-805.398787
4812.820692	-1267.836327	4273.372243	-806.410685
4812.700728	-1271.883921	4273.491927	-805.398787
4812.580765	-1271.883921	4273.611610	-806.410685
4812.460803	-1272.895819	4273.731293	-806.410685
4812.340842	-1270.872022	4273.850974	-809.446380
4812.220882	-1269.860124	4273.970655	-811.470177
4812.100922	-1267.836327	4274.090335	-809.446380
4811.980964	-1267.836327	4274.210015	-810.458279
4811.861006	-1265.812531	4274.329693	-810.458279
4811.741050	-1266.824429	4274.449371	-810.458279
4811.621094	-1267.836327	4274.569048	-811.470177
4811.501139	-1269.860124	4274.688724	-809.446380
4811.381186	-1269.860124	4274.808400	-809.446380
4811.261233	-1270.872022	4274.928075	-811.470177
4811.141281	-1269.860124	4275.047748	-810.458279
4811.021330	-1266.824429	4275.167422	-814.505872
4810.901379	-1262.776835	4275.287094	-812.482075
4810.781430	-1257.717344	4275.406766	-814.505872
4810.661482	-1252.657852	4275.526437	-813.493974
4810.541534	-1246.586462	4275.646107	-811.470177
4810.421588	-1240.515071	4275.765776	-809.446380
4810.301642	-1232.419884	4275.885445	-810.458279
4810.181697	-1228.372291	4276.005113	-809.446380
4810.061754	-1222.300901	4276.124780	-806.410685
4809.941811	-1219.265206	4276.244446	-806.410685
4809.821869	-1215.217612	4276.364111	-806.410685
4809.701928	-1211.170019	4276.483776	-807.422584
4809.581988	-1206.110527	4276.603440	-806.410685
4809.462048	-1205.098629	4276.723103	-807.422584
4809.342110	-1194.979645	4276.842766	-808.434482
4809.222173	-1187.896356	4276.962428	-809.446380
4809.102236	-1179.801169	4277.082089	-807.422584
4808.982301	-1168.670288	4277.201749	-810.458279
4808.862366	-1157.539406	4277.321408	-812.482075
4808.742432	-1145.396625	4277.441067	-811.470177
4808.622499	-1137.301439	4277.560725	-807.422584
4808.502567	-1125.158658	4277.680382	-809.446380
4808.382636	-1117.063471	4277.800038	-807.422584
4808.262706	-1110.992081	4277.919694	-806.410685
4808.142777	-1106.944488	4278.039349	-806.410685
4808.022849	-1101.884996	4278.159003	-806.410685
4807.902921	-1101.884996	4278.278656	-806.410685
4807.782995	-1100.873098	4278.398309	-806.410685
4807.663069	-1099.861200	4278.517961	-807.422584
4807.543144	-1100.873098	4278.637612	-808.434482
4807.423220	-1102.896895	4278.757262	-808.434482
4807.303298	-1102.896895	4278.876912	-809.446380
4807.183376	-1104.920691	4278.996561	-812.482075
4807.063454	-1109.980183	4279.116209	-811.470177
4806.943534	-1108.968285	4279.235856	-812.482075
4806.823615	-1112.003980	4279.355503	-812.482075
4806.703697	-1114.027776	4279.475149	-814.505872
4806.583779	-1115.039675	4279.594794	-813.493974
4806.463862	-1114.027776	4279.714438	-816.529668
4806.343947	-1115.039675	4279.834082	-813.493974
4806.224032	-1110.992081	4279.953725	-813.493974
4806.104118	-1106.944488	4280.073367	-813.493974
4805.984205	-1102.896895	4280.193008	-813.493974
4805.864293	-1094.801708	4280.312649	-811.470177
4805.744382	-1090.754114	4280.432288	-809.446380
4805.624472	-1085.694623	4280.551927	-813.493974
4805.504562	-1081.647029	4280.671566	-808.434482
4805.384654	-1076.587538	4280.791203	-809.446380
4805.264746	-1072.539944	4280.910840	-807.422584
4805.144839	-1073.551843	4281.030476	-806.410685
4805.024933	-1075.575639	4281.150112	-806.410685
4804.905029	-1077.599436	4281.269746	-807.422584
4804.785125	-1081.647029	4281.389380	-806.410685
4804.665221	-1083.670826	4281.509013	-804.386889
4804.545319	-1090.754114	4281.628646	-807.422584
4804.425418	-1097.837403	4281.748277	-805.398787
4804.305517	-1106.944488	4281.867908	-805.398787
4804.185618	-1112.003980	4281.987538	-807.422584
4804.065719	-1118.075370	4282.107168	-808.434482
4803.945821	-1125.158658	4282.226796	-807.422584
4803.825925	-1126.170557	4282.346424	-807.422584
4803.706029	-1129.206252	4282.466051	-808.434482
4803.586134	-1132.241947	4282.585678	-807.422584
4803.466239	-1132.241947	4282.705303	-809.446380
4803.346346	-1132.241947	4282.824928	-809.446380
4803.226454	-1131.230048	4282.944553	-807.422584
4803.106562	-1129.206252	4283.064176	-808.434482
4802.986671	-1129.206252	4283.183799	-808.434482
4802.866782	-1127.182455	4283.303421	-808.434482
4802.746893	-1126.170557	4283.423042	-810.458279
4802.627005	-1126.170557	4283.542662	-809.446380
4802.507118	-1129.206252	4283.662282	-810.458279
4802.387232	-1128.194353	4283.781901	-810.458279
4802.267346	-1128.194353	4283.901520	-812.482075
4802.147462	-1127.182455	4284.021137	-813.493974
4802.027578	-1123.134862	4284.140754	-812.482075
4801.907696	-1119.087268	4284.260370	-812.482075
4801.787814	-1115.039675	4284.379985	-813.493974
4801.667933	-1106.944488	4284.499600	-811.470177
4801.548053	-1101.884996	4284.619214	-810.458279
4801.428174	-1094.801708	4284.738827	-808.434482
4801.308296	-1085.694623	4284.858439	-809.446380
4801.188418	-1081.647029	4284.978051	-807.422584
4801.068542	-1076.587538	4285.097662	-806.410685
4800.948666	-1072.539944	4285.217272	-806.410685
4800.828792	-1069.504249	4285.336882	-806.410685
4800.708918	-1066.468554	4285.456491	-807.422584
4800.589045	-1062.420961	4285.576099	-807.422584
4800.469173	-1059.385266	4285.695706	-808.434482
4800.349302	-1056.349571	4285.815313	-810.458279
4800.229432	-1051.290079	4285.934918	-811.470177
4800.109562	-1047.242486	4286.054523	-812.482075
4799.989694	-1040.159197	4286.174128	-812.482075
4799.869826	-1035.099706	4286.293732	-812.482075
4799.749959	-1030.040214	4286.413334	-813.493974
4799.630093	-1021.945027	4286.532937	-815.517770
4799.510228	-1013.849841	4286.652538	-813.493974
4799.390364	-1007.778451	4286.772139	-812.482075
4799.270501	-1003.730857	4286.891739	-811.470177
4799.150639	-997.659467	4287.011338	-813.493974
4799.030777	-994.623772	4287.130937	-812.482075
4798.910917	-990.576179	4287.250535	-810.458279
4798.791057	-988.552382	4287.370132	-809.446380
4798.671198	-985.516687	4287.489728	-809.446380
4798.551340	-987.540484	4287.609324	-809.446380
4798.431483	-985.516687	4287.728919	-811.470177
4798.311627	-988.552382	4287.848513	-809.446380
4798.191771	-987.540484	4287.968106	-808.434482
4798.071917	-987.540484	4288.087699	-810.458279
4797.952063	-990.576179	4288.207291	-812.482075
4797.832211	-988.552382	4288.326883	-812.482075
4797.712359	-990.576179	4288.446473	-809.446380
4797.592508	-992.599976	4288.566063	-811.470177
4797.472658	-992.599976	4288.685652	-811.470177
4797.352808	-989.564281	4288.805241	-811.470177
4797.232960	-990.576179	4288.924829	-811.470177
4797.113112	-990.576179	4289.044416	-810.458279
4796.993266	-989.564281	4289.164002	-811.470177
4796.873420	-989.564281	4289.283588	-808.434482
4796.753575	-988.552382	4289.403172	-808.434482
4796.633731	-988.552382	4289.522757	-809.446380
4796.513888	-990.576179	4289.642340	-807.422584
4796.394046	-990.576179	4289.761923	-809.446380
4796.274204	-990.576179	4289.881505	-806.410685
4796.154364	-988.552382	4290.001086	-807.422584
4796.034524	-988.552382	4290.120667	-808.434482
4795.914685	-985.516687	4290.240247	-808.434482
4795.794847	-982.480992	4290.359826	-809.446380
4795.675010	-982.480992	4290.479404	-809.446380
4795.555174	-978.433399	4290.598982	-808.434482
4795.435339	-974.385806	4290.718559	-807.422584
4795.315504	-971.350111	4290.838135	-808.434482
4795.195671	-969.326314	4290.957711	-810.458279
4795.075838	-967.302517	4291.077286	-809.446380
4794.956006	-966.290619	4291.196860	-809.446380
4794.836175	-968.314416	4291.316433	-810.458279
4794.716345	-965.278721	4291.436006	-809.446380
4794.596515	-966.290619	4291.555578	-810.458279
4794.476687	-968.314416	4291.675150	-812.482075
4794.356859	-967.302517	4291.794720	-811.470177
4794.237033	-970.338212	4291.914290	-811.470177
4794.117207	-969.326314	4292.033859	-813.493974
4793.997382	-971.350111	4292.153428	-811.470177
4793.877558	-971.350111	4292.272996	-813.493974
4793.757735	-971.350111	4292.392563	-812.482075
4793.637912	-974.385806	4292.512129	-812.482075
4793.518091	-976.409602	4292.631695	-813.493974
