scanstart [nm]: 4875.000000
slope [nm/V]: 42.182656
k [N/m]: 0.074466
velocity [nm/s]: 400.000000
6:30:18 PM

4842.526472	541.437752	4243.823521	-977.421501
4842.404744	536.378261	4243.943822	-976.409602
4842.283019	533.342567	4244.064122	-976.409602
4842.161295	534.354465	4244.184420	-978.433399
4842.039574	538.402057	4244.304717	-979.445297
4841.917855	546.497243	4244.425012	-978.433399
4841.796137	556.616224	4244.545306	-975.397704
4841.674421	561.675715	4244.665599	-969.326314
4841.552708	562.687613	4244.785890	-965.278721
4841.430996	564.711410	4244.906180	-967.302517
4841.309287	561.675715	4245.026469	-971.350111
4841.187579	552.568632	4245.146756	-976.409602
4841.065874	542.449650	4245.267042	-980.457196
4840.944170	524.235483	4245.387326	-980.457196
4840.822468	505.009418	4245.507610	-978.433399
4840.700768	482.747658	4245.627891	-976.409602
4840.579071	466.557287	4245.748172	-975.397704
4840.457375	457.450204	4245.868451	-977.421501
4840.335681	462.509695	4245.988729	-978.433399
4840.213989	471.616778	4246.109005	-980.457196
4840.092299	478.700065	4246.229280	-981.469094
4839.970611	480.723862	4246.349553	-982.480992
4839.848925	468.581084	4246.469826	-981.469094
4839.727242	450.366917	4246.590097	-983.492891
4839.605560	424.057564	4246.710366	-982.480992
4839.483879	401.795804	4246.830634	-980.457196
4839.362201	382.569739	4246.950901	-981.469094
4839.240525	370.426961	4247.071167	-980.457196
4839.118851	358.284183	4247.191431	-980.457196
4838.997179	352.212794	4247.311693	-980.457196
4838.875509	342.093812	4247.431955	-976.409602
4838.753840	332.986728	4247.552215	-976.409602
4838.632174	322.867746	4247.672474	-977.421501
4838.510510	308.701172	4247.792731	-977.421501
4838.388847	294.534597	4247.912987	-975.397704
4838.267187	285.427514	4248.033242	-976.409602
4838.145529	279.356125	4248.153495	-975.397704
4838.023872	279.356125	4248.273747	-978.433399
4837.902218	281.379921	4248.393997	-980.457196
4837.780565	277.332328	4248.514247	-987.540484
4837.658914	265.189550	4248.634494	-993.611874
4837.537266	250.011077	4248.754741	-994.623772
4837.415619	234.832604	4248.874986	-990.576179
4837.293974	219.654132	4248.995230	-984.504789
4837.172331	211.558946	4249.115473	-973.373907
4837.050691	212.570844	4249.235714	-966.290619
4836.929052	215.606539	4249.355953	-964.266823
4836.807415	214.594641	4249.476192	-963.254924
4836.685780	204.475659	4249.596429	-967.302517
4836.564147	188.285288	4249.716665	-971.350111
4836.442515	161.975935	4249.836899	-973.373907
4836.320886	140.726073	4249.957132	-978.433399
4836.199259	119.476210	4250.077364	-982.480992
4836.077634	106.321534	4250.197595	-982.480992
4835.956011	97.214450	4250.317824	-983.492891
4835.834389	93.166857	4250.438051	-980.457196
4835.712770	90.131163	4250.558278	-977.421501
4835.591152	90.131163	4250.678503	-971.350111
4835.469537	89.119264	4250.798727	-970.338212
4835.347923	84.059773	4250.918949	-966.290619
4835.226311	77.988384	4251.039170	-967.302517
4835.104702	66.857504	4251.159390	-970.338212
4834.983094	54.714726	4251.279608	-978.433399
4834.861488	38.524354	4251.399825	-985.516687
4834.739884	23.345881	4251.520041	-986.528586
4834.618282	7.155510	4251.640255	-986.528586
4834.496682	-9.034861	4251.760469	-983.492891
4834.375084	-26.237131	4251.880680	-980.457196
4834.253488	-37.368011	4252.000891	-975.397704
4834.131894	-45.463197	4252.121100	-973.373907
4834.010302	-47.486994	4252.241308	-973.373907
4833.888711	-43.439401	4252.361514	-973.373907
4833.767123	-43.439401	4252.481719	-972.362009
4833.645537	-44.451299	4252.601923	-972.362009
4833.523952	-44.451299	4252.722125	-972.362009
4833.402369	-51.534586	4252.842326	-972.362009
4833.280789	-58.617874	4252.962526	-970.338212
4833.159210	-66.713060	4253.082725	-971.350111
4833.037633	-71.772551	4253.202922	-974.385806
4832.916058	-72.784449	4253.323118	-973.373907
4832.794485	-72.784449	4253.443312	-980.457196
4832.672914	-71.772551	4253.563505	-986.528586
4832.551345	-70.760652	4253.683697	-991.588077
4832.429778	-76.832042	4253.803888	-995.635671
4832.308213	-88.974820	4253.924077	-992.599976
4832.186650	-105.165192	4254.044265	-989.564281
4832.065088	-126.415054	4254.164452	-983.492891
4831.943529	-151.712510	4254.284637	-978.433399
4831.821971	-181.057559	4254.404821	-976.409602
4831.700416	-208.378811	4254.525003	-977.421501
4831.578862	-228.616775	4254.645185	-981.469094
4831.457310	-237.723859	4254.765365	-985.516687
4831.335760	-240.759554	4254.885544	-989.564281
4831.214213	-237.723859	4255.005721	-985.516687
4831.092667	-228.616775	4255.125897	-981.469094
4830.971122	-222.545386	4255.246072	-974.385806
4830.849580	-218.497793	4255.366245	-969.326314
4830.728040	-222.545386	4255.486417	-969.326314
4830.606502	-235.700063	4255.606588	-975.397704
4830.484965	-254.926129	4255.726758	-984.504789
4830.363431	-284.271178	4255.846926	-990.576179
4830.241898	-309.568634	4255.967093	-991.588077
4830.120368	-328.794701	4256.087259	-984.504789
4829.998839	-336.889887	4256.207423	-982.480992
4829.877312	-336.889887	4256.327586	-980.457196
4829.755787	-336.889887	4256.447748	-982.480992
4829.634264	-338.913683	4256.567908	-985.516687
4829.512743	-348.020768	4256.688067	-987.540484
4829.391224	-357.127852	4256.808225	-982.480992
4829.269707	-368.258732	4256.928381	-980.457196
4829.148191	-379.389613	4257.048536	-978.433399
4829.026678	-392.544290	4257.168690	-980.457196
4828.905166	-404.687069	4257.288843	-979.445297
4828.783657	-417.841747	4257.408994	-981.469094
4828.662149	-432.008322	4257.529144	-980.457196
4828.540643	-440.103508	4257.649293	-978.433399
4828.419139	-443.139203	4257.769440	-976.409602
4828.297637	-441.115407	4257.889586	-977.421501
4828.176137	-439.091610	4258.009731	-980.457196
4828.054639	-437.067814	4258.129875	-986.528586
4827.933143	-439.091610	4258.250017	-987.540484
4827.811648	-449.210593	4258.370158	-988.552382
4827.690156	-458.317677	4258.490297	-984.504789
4827.568665	-476.531846	4258.610436	-977.421501
4827.447177	-491.710320	4258.730573	-973.373907
4827.325690	-507.900692	4258.850708	-974.385806
4827.204205	-521.055369	4258.970843	-974.385806
4827.082722	-534.210047	4259.090976	-977.421501
4826.961241	-545.340928	4259.211108	-981.469094
4826.839762	-556.471809	4259.331238	-982.480992
4826.718284	-565.578893	4259.451368	-983.492891
4826.596809	-572.662181	4259.571496	-981.469094
4826.475335	-577.721672	4259.691623	-980.457196
4826.353864	-580.757367	4259.811748	-979.445297
4826.232394	-579.745469	4259.931872	-979.445297
4826.110926	-573.674079	4260.051995	-984.504789
4825.989460	-572.662181	4260.172117	-984.504789
4825.867996	-571.650283	4260.292237	-984.504789
4825.746534	-575.697876	4260.412356	-985.516687
4825.625074	-585.816859	4260.532474	-984.504789
4825.503615	-600.995333	4260.652590	-986.528586
4825.382159	-619.209502	4260.772705	-989.564281
4825.260704	-634.387976	4260.892819	-992.599976
4825.139252	-643.495060	4261.012932	-990.576179
4825.017801	-643.495060	4261.133043	-990.576179
4824.896352	-641.471264	4261.253153	-985.516687
4824.774905	-645.518857	4261.373262	-979.445297
4824.653460	-657.661636	4261.493369	-973.373907
4824.532016	-677.899602	4261.613476	-968.314416
4824.410575	-698.137568	4261.733580	-969.326314
4824.289136	-711.292245	4261.853684	-973.373907
4824.167698	-717.363635	4261.973787	-977.421501
4824.046262	-719.387432	4262.093888	-979.445297
4823.924828	-727.482618	4262.213987	-978.433399
4823.803396	-739.625398	4262.334086	-976.409602
4823.681966	-750.756279	4262.454183	-973.373907
4823.560538	-760.875262	4262.574279	-969.326314
4823.439112	-759.863364	4262.694374	-968.314416
4823.317687	-755.815770	4262.814468	-968.314416
4823.196265	-750.756279	4262.934560	-969.326314
4823.074844	-751.768177	4263.054651	-975.397704
4822.953425	-753.791974	4263.174741	-981.469094
4822.832008	-760.875262	4263.294829	-988.552382
4822.710593	-774.029940	4263.414916	-992.599976
4822.589180	-785.160821	4263.535002	-992.599976
4822.467768	-801.351194	4263.655087	-987.540484
4822.346359	-814.505872	4263.775170	-982.480992
4822.224951	-822.601058	4263.895252	-978.433399
4822.103546	-823.612957	4264.015333	-977.421501
4821.982142	-819.565363	4264.135412	-977.421501
4821.860740	-811.470177	4264.255491	-975.397704
4821.739340	-804.386889	4264.375568	-975.397704
4821.617942	-805.398787	4264.495644	-976.409602
4821.496545	-819.565363	4264.615718	-972.362009
4821.375151	-842.839024	4264.735791	-972.362009
4821.253758	-872.184075	4264.855863	-974.385806
4821.132367	-888.374448	4264.975934	-972.362009
4821.010978	-896.469635	4265.096004	-974.385806
4820.889591	-887.362550	4265.216072	-974.385806
4820.768206	-880.279262	4265.336139	-976.409602
4820.646823	-872.184075	4265.456205	-975.397704
4820.525441	-874.207872	4265.576269	-975.397704
4820.404062	-880.279262	4265.696332	-972.362009
4820.282684	-884.326855	4265.816394	-972.362009
4820.161308	-885.338754	4265.936455	-974.385806
4820.039934	-880.279262	4266.056514	-974.385806
4819.918562	-883.314957	4266.176573	-974.385806
4819.797192	-891.410143	4266.296630	-975.397704
4819.675823	-904.564822	4266.416685	-979.445297
4819.554457	-917.719500	4266.536740	-985.516687
4819.433092	-925.814686	4266.656793	-988.552382
4819.311729	-930.874178	4266.776845	-991.588077
4819.190368	-928.850381	4266.896896	-990.576179
4819.069009	-922.778991	4267.016945	-986.528586
4818.947652	-922.778991	4267.136993	-982.480992
4818.826296	-925.814686	4267.257040	-978.433399
4818.704943	-931.886076	4267.377086	-975.397704
4818.583591	-942.005059	4267.497131	-973.373907
4818.462241	-948.076449	4267.617174	-976.409602
4818.340893	-951.112144	4267.737216	-979.445297
4818.219547	-955.159738	4267.857257	-980.457196
4818.098202	-957.183534	4267.977296	-984.504789
4817.976860	-964.266823	4268.097335	-985.516687
4817.855519	-968.314416	4268.217372	-984.504789
4817.734181	-966.290619	4268.337407	-983.492891
4817.612844	-966.290619	4268.457442	-979.445297
4817.491509	-968.314416	4268.577475	-977.421501
4817.370175	-974.385806	4268.697507	-972.362009
4817.248844	-983.492891	4268.817538	-974.385806
4817.127514	-994.623772	4268.937568	-977.421501
4817.006187	-1004.742756	4269.057596	-981.469094
4816.884861	-1008.790349	4269.177623	-984.504789
4816.763537	-1011.826044	4269.297649	-987.540484
4816.642215	-1016.885536	4269.417674	-984.504789
4816.520894	-1017.897434	4269.537697	-983.492891
4816.399576	-1015.873637	4269.657720	-979.445297
4816.278259	-1012.837942	4269.777741	-979.445297
4816.156944	-1013.849841	4269.897760	-981.469094
4816.035631	-1013.849841	4270.017779	-987.540484
4815.914320	-1016.885536	4270.137796	-988.552382
4815.793011	-1018.909332	4270.257812	-987.540484
4815.671703	-1022.956926	4270.377827	-987.540484
4815.550398	-1024.980722	4270.497841	-984.504789
4815.429094	-1021.945027	4270.617853	-980.457196
4815.307792	-1018.909332	4270.737864	-980.457196
4815.186492	-1015.873637	4270.857874	-979.445297
4815.065193	-1018.909332	4270.977883	-976.409602
4814.943897	-1022.956926	4271.097891	-978.433399
4814.822602	-1032.064011	4271.217897	-980.457196
4814.701310	-1037.123502	4271.337902	-980.457196
4814.580019	-1035.099706	4271.457906	-977.421501
4814.458729	-1029.028316	4271.577908	-980.457196
4814.337442	-1016.885536	4271.697910	-977.421501
4814.216157	-1010.814146	4271.817910	-977.421501
4814.094873	-1009.802247	4271.937909	-980.457196
4813.973591	-1012.837942	4272.057907	-981.469094
4813.852311	-1023.968824	4272.177903	-983.492891
4813.731033	-1029.028316	4272.297898	-981.469094
4813.609757	-1037.123502	4272.417892	-980.457196
4813.488482	-1037.123502	4272.537885	-977.421501
4813.367209	-1039.147299	4272.657877	-973.373907
4813.245938	-1044.206791	4272.777867	-973.373907
4813.124669	-1050.278181	4272.897857	-972.362009
4813.003402	-1054.325774	4273.017845	-971.350111
4812.882137	-1060.397164	4273.137831	-973.373907
4812.760873	-1057.361469	4273.257817	-976.409602
4812.639611	-1060.397164	4273.377801	-979.445297
4812.518351	-1058.373367	4273.497785	-981.469094
4812.397093	-1062.420961	4273.617767	-981.469094
4812.275837	-1073.551843	4273.737747	-979.445297
4812.154582	-1089.742216	4273.857727	-977.421501
4812.033330	-1103.908793	4273.977705	-976.409602
4811.912079	-1114.027776	4274.097682	-979.445297
4811.790830	-1117.063471	4274.217658	-984.504789
4811.669583	-1114.027776	4274.337633	-989.564281
4811.548337	-1103.908793	4274.457606	-989.564281
4811.427093	-1090.754114	4274.577579	-988.552382
4811.305852	-1079.623233	4274.697550	-982.480992
4811.184612	-1069.504249	4274.817520	-980.457196
4811.063374	-1059.385266	4274.937488	-980.457196
4810.942137	-1048.254384	4275.057456	-981.469094
4810.820903	-1034.087807	4275.177422	-979.445297
4810.699670	-1025.992621	4275.297387	-980.457196
4810.578439	-1020.933129	4275.417351	-978.433399
4810.457210	-1023.968824	4275.537314	-979.445297
4810.335982	-1029.028316	4275.657275	-981.469094
4810.214757	-1034.087807	4275.777236	-986.528586
4810.093533	-1039.147299	4275.897195	-986.528586
4809.972311	-1038.135401	4276.017153	-986.528586
4809.851091	-1032.064011	4276.137109	-982.480992
4809.729873	-1032.064011	4276.257065	-979.445297
4809.608656	-1031.052112	4276.377019	-978.433399
4809.487442	-1034.087807	4276.496972	-981.469094
4809.366229	-1038.135401	4276.616924	-986.528586
4809.245018	-1045.218689	4276.736875	-992.599976
4809.123808	-1052.301977	4276.856824	-996.647569
4809.002601	-1056.349571	4276.976773	-995.635671
4808.881395	-1055.337672	4277.096720	-992.599976
4808.760191	-1054.325774	4277.216666	-986.528586
4808.638989	-1047.242486	4277.336611	-980.457196
4808.517789	-1042.182994	4277.456554	-980.457196
4808.396591	-1039.147299	4277.576497	-978.433399
4808.275394	-1038.135401	4277.696438	-979.445297
4808.154199	-1041.171096	4277.816378	-975.397704
4808.033006	-1047.242486	4277.936317	-975.397704
4807.911815	-1049.266282	4278.056254	-974.385806
4807.790625	-1050.278181	4278.176191	-974.385806
4807.669437	-1055.337672	4278.296126	-977.421501
4807.548251	-1059.385266	4278.416060	-977.421501
4807.427067	-1060.397164	4278.535993	-978.433399
4807.305885	-1062.420961	4278.655925	-978.433399
4807.184704	-1060.397164	4278.775855	-980.457196
4807.063526	-1052.301977	4278.895785	-978.433399
4806.942349	-1041.171096	4279.015713	-980.457196
4806.821173	-1029.028316	4279.135640	-983.492891
4806.700000	-1021.945027	4279.255566	-983.492891
4806.578828	-1020.933129	4279.375491	-987.540484
4806.457659	-1028.016417	4279.495414	-988.552382
4806.336490	-1037.123502	4279.615336	-987.540484
4806.215324	-1046.230587	4279.735258	-986.528586
4806.094160	-1049.266282	4279.855177	-983.492891
4805.972997	-1050.278181	4279.975096	-984.504789
4805.851836	-1046.230587	4280.095014	-978.433399
4805.730677	-1041.171096	4280.214930	-981.469094
4805.609520	-1036.111604	4280.334846	-981.469094
4805.488364	-1035.099706	4280.454760	-985.516687
4805.367210	-1034.087807	4280.574673	-986.528586
4805.246058	-1033.075909	4280.694584	-987.540484
4805.124908	-1029.028316	4280.814495	-986.528586
4805.003760	-1032.064011	4280.934404	-984.504789
4804.882613	-1037.123502	4281.054313	-983.492891
4804.761468	-1046.230587	4281.174220	-982.480992
4804.640325	-1055.337672	4281.294126	-980.457196
4804.519184	-1061.409063	4281.414030	-977.421501
4804.398044	-1057.361469	4281.533934	-974.385806
4804.276906	-1050.278181	4281.653836	-974.385806
4804.155770	-1036.111604	4281.773738	-974.385806
4804.034636	-1023.968824	4281.893638	-973.373907
4803.913504	-1017.897434	4282.013537	-973.373907
4803.792373	-1017.897434	4282.133434	-974.385806
4803.671244	-1024.980722	4282.253331	-975.397704
4803.550117	-1033.075909	4282.373226	-975.397704
4803.428991	-1041.171096	4282.493121	-976.409602
4803.307868	-1045.218689	4282.613014	-979.445297
4803.186746	-1045.218689	4282.732906	-981.469094
4803.065626	-1044.206791	4282.852796	-986.528586
4802.944507	-1044.206791	4282.972686	-987.540484
4802.823391	-1045.218689	4283.092575	-989.564281
4802.702276	-1047.242486	4283.212462	-989.564281
4802.581163	-1052.301977	4283.332348	-992.599976
4802.460052	-1057.361469	4283.452233	-988.552382
4802.338942	-1057.361469	4283.572117	-986.528586
4802.217835	-1057.361469	4283.692000	-981.469094
4802.096729	-1056.349571	4283.811881	-978.433399
4801.975624	-1053.313876	4283.931762	-974.385806
4801.854522	-1054.325774	4284.051641	-969.326314
4801.733421	-1058.373367	4284.171519	-973.373907
4801.612322	-1060.397164	4284.291396	-975.397704
4801.491225	-1059.385266	4284.411272	-976.409602
4801.370130	-1055.337672	4284.531146	-981.469094
4801.249036	-1047.242486	4284.651020	-983.492891
4801.127944	-1041.171096	4284.770892	-982.480992
4801.006854	-1034.087807	4284.890763	-981.469094
4800.885766	-1030.040214	4285.010633	-977.421501
4800.764679	-1028.016417	4285.130502	-974.385806
4800.643594	-1030.040214	4285.250370	-974.385806
4800.522511	-1033.075909	4285.370237	-973.373907
4800.401430	-1035.099706	4285.490102	-976.409602
4800.280350	-1035.099706	4285.609967	-977.421501
4800.159272	-1036.111604	4285.729830	-982.480992
4800.038196	-1032.064011	4285.849692	-986.528586
4799.917122	-1030.040214	4285.969553	-991.588077
4799.796049	-1031.052112	4286.089412	-989.564281
4799.674979	-1034.087807	4286.209271	-984.504789
4799.553909	-1040.159197	4286.329129	-980.457196
4799.432842	-1042.182994	4286.448985	-974.385806
4799.311777	-1041.171096	4286.568840	-973.373907
4799.190713	-1037.123502	4286.688694	-971.350111
4799.069651	-1036.111604	4286.808547	-972.362009
4798.948590	-1030.040214	4286.928399	-975.397704
4798.827532	-1024.980722	4287.048250	-973.373907
4798.706475	-1023.968824	4287.168099	-975.397704
4798.585420	-1022.956926	4287.287948	-977.421501
4798.464366	-1019.921231	4287.407795	-974.385806
4798.343315	-1023.968824	4287.527641	-973.373907
4798.222265	-1021.945027	4287.647486	-975.397704
4798.101216	-1020.933129	4287.767330	-977.421501
4797.980170	-1017.897434	4287.887172	-980.457196
4797.859125	-1017.897434	4288.007014	-983.492891
4797.738082	-1018.909332	4288.126855	-984.504789
4797.617041	-1025.992621	4288.246694	-983.492891
4797.496002	-1031.052112	4288.366532	-980.457196
4797.374964	-1038.135401	4288.486369	-977.421501
4797.253928	-1040.159197	4288.606205	-978.433399
4797.132894	-1043.194892	4288.726040	-980.457196
4797.011861	-1043.194892	4288.845874	-981.469094
4796.890830	-1041.171096	4288.965706	-981.469094
4796.769801	-1039.147299	4289.085538	-980.457196
4796.648774	-1040.159197	4289.205368	-979.445297
4796.527748	-1044.206791	4289.325197	-980.457196
4796.406725	-1047.242486	4289.445025	-981.469094
4796.285702	-1049.266282	4289.564852	-982.480992
4796.164682	-1050.278181	4289.684678	-982.480992
4796.043663	-1050.278181	4289.804503	-978.433399
4795.922646	-1054.325774	4289.924327	-976.409602
4795.801631	-1055.337672	4290.044149	-977.421501
4795.680618	-1057.361469	4290.163970	-979.445297
4795.559606	-1062.420961	4290.283791	-982.480992
4795.438596	-1062.420961	4290.403610	-983.492891
4795.317588	-1069.504249	4290.523428	-984.504789
4795.196581	-1067.480453	4290.643245	-979.445297
4795.075576	-1066.468554	4290.763061	-979.445297
4794.954573	-1064.444758	4290.882875	-977.421501
4794.833572	-1061.409063	4291.002689	-977.421501
4794.712572	-1059.385266	4291.122501	-974.385806
4794.591574	-1056.349571	4291.242313	-973.373907
4794.470578	-1057.361469	4291.362123	-974.385806
4794.349583	-1063.432859	4291.481932	-979.445297
4794.228590	-1068.492351	4291.601740	-982.480992
4794.107599	-1073.551843	4291.721547	-985.516687
4793.986610	-1078.611334	4291.841353	-985.516687
4793.865622	-1075.575639	4291.961157	-985.516687
4793.744636	-1075.575639	4292.080961	-983.492891
