scanstart [nm]: 4790.000000
slope [nm/V]: 42.182656
k [N/m]: 0.074466
velocity [nm/s]: 400.000000
6:56:36 PM

4759.252972	1159.707521	4161.069283	-402.663273
4759.131624	1156.671826	4161.190088	-401.651375
4759.010279	1155.659928	4161.310892	-401.651375
4758.888935	1161.731317	4161.431693	-401.651375
4758.767593	1168.814604	4161.552493	-407.722764
4758.646253	1180.957382	4161.673291	-412.782255
4758.524916	1195.123955	4161.794087	-415.817950
4758.403580	1205.242937	4161.914881	-415.817950
4758.282246	1207.266733	4162.035673	-413.794154
4758.160914	1203.219141	4162.156463	-409.746561
4758.039584	1192.088261	4162.277252	-404.687069
4757.918256	1174.885993	4162.398039	-398.615680
4757.796930	1156.671826	4162.518823	-399.627578
4757.675605	1137.445762	4162.639606	-400.639476
4757.554283	1121.255392	4162.760387	-399.627578
4757.432963	1107.088818	4162.881167	-401.651375
4757.311644	1096.969836	4163.001944	-402.663273
4757.190328	1085.838957	4163.122720	-399.627578
4757.069014	1072.684281	4163.243493	-399.627578
4756.947701	1061.553401	4163.364265	-401.651375
4756.826390	1049.410624	4163.485035	-404.687069
4756.705082	1043.339235	4163.605803	-407.722764
4756.583775	1041.315439	4163.726570	-413.794154
4756.462470	1040.303541	4163.847334	-417.841747
4756.341167	1038.279744	4163.968097	-415.817950
4756.219866	1031.196457	4164.088857	-411.770357
4756.098567	1018.041781	4164.209616	-407.722764
4755.977270	1000.839513	4164.330373	-403.675171
4755.855975	979.589652	4164.451129	-398.615680
4755.734682	961.375486	4164.571882	-398.615680
4755.613391	946.197013	4164.692634	-399.627578
4755.492101	941.137523	4164.813383	-401.651375
4755.370814	938.101828	4164.934131	-400.639476
4755.249528	935.066134	4165.054877	-402.663273
4755.128245	930.006643	4165.175621	-403.675171
4755.006963	920.899560	4165.296364	-404.687069
4754.885683	906.732986	4165.417104	-405.698968
4754.764406	892.566412	4165.537843	-403.675171
4754.643130	877.387940	4165.658580	-403.675171
4754.521856	862.209467	4165.779315	-402.663273
4754.400584	853.102384	4165.900048	-403.675171
4754.279314	849.054791	4166.020779	-408.734662
4754.158046	848.042893	4166.141509	-408.734662
4754.036779	849.054791	4166.262236	-411.770357
4753.915515	849.054791	4166.382962	-409.746561
4753.794253	846.019097	4166.503686	-403.675171
4753.672992	838.935810	4166.624408	-397.603782
4753.551734	826.793032	4166.745129	-394.568087
4753.430477	808.578865	4166.865847	-393.556189
4753.309222	788.340902	4166.986564	-397.603782
4753.187970	766.079143	4167.107279	-402.663273
4753.066719	749.888773	4167.227992	-405.698968
4752.945470	735.722198	4167.348703	-405.698968
4752.824223	732.686504	4167.469413	-404.687069
4752.702977	734.710300	4167.590120	-396.591883
4752.581734	735.722198	4167.710826	-393.556189
4752.460493	740.781689	4167.831530	-388.496697
4752.339254	741.793587	4167.952232	-387.484799
4752.218016	733.698402	4168.072932	-391.532392
4752.096780	719.531828	4168.193631	-395.579985
4751.975547	699.293865	4168.314328	-401.651375
4751.854315	678.044004	4168.435022	-406.710866
4751.733085	657.806040	4168.555715	-410.758459
4751.611857	638.579975	4168.676407	-411.770357
4751.490631	625.425299	4168.797096	-409.746561
4751.369407	615.306318	4168.917784	-407.722764
4751.248185	613.282521	4169.038470	-405.698968
4751.126964	618.342012	4169.159154	-403.675171
4751.005746	620.365809	4169.279836	-406.710866
4750.884530	624.413401	4169.400516	-407.722764
4750.763315	623.401503	4169.521195	-409.746561
4750.642102	619.353910	4169.641871	-411.770357
4750.520891	604.175438	4169.762546	-409.746561
4750.399682	581.913678	4169.883220	-407.722764
4750.278475	554.592428	4170.003891	-404.687069
4750.157270	525.247381	4170.124561	-400.639476
4750.036067	498.938029	4170.245228	-397.603782
4749.914866	483.759556	4170.365894	-396.591883
4749.793666	475.664371	4170.486558	-399.627578
4749.672469	477.688167	4170.607221	-402.663273
4749.551273	480.723862	4170.727881	-405.698968
4749.430079	482.747658	4170.848540	-407.722764
4749.308888	476.676269	4170.969197	-403.675171
4749.187698	464.533491	4171.089852	-402.663273
4749.066510	440.247935	4171.210506	-400.639476
4748.945323	415.962379	4171.331157	-398.615680
4748.824139	393.700619	4171.451807	-399.627578
4748.702957	374.474554	4171.572455	-403.675171
4748.581776	362.331775	4171.693101	-407.722764
4748.460598	356.260386	4171.813745	-407.722764
4748.339421	358.284183	4171.934388	-409.746561
4748.218246	359.296081	4172.055029	-405.698968
4748.097073	362.331775	4172.175668	-402.663273
4747.975902	357.272285	4172.296305	-399.627578
4747.854733	349.177099	4172.416941	-396.591883
4747.733566	338.046219	4172.537574	-396.591883
4747.612400	321.855848	4172.658206	-398.615680
4747.491237	302.629783	4172.778836	-398.615680
4747.370075	282.391819	4172.899465	-398.615680
4747.248915	267.213346	4173.020091	-399.627578
4747.127758	254.058670	4173.140716	-401.651375
4747.006602	244.951586	4173.261339	-399.627578
4746.885448	244.951586	4173.381960	-398.615680
4746.764295	251.022975	4173.502580	-399.627578
4746.643145	259.118161	4173.623197	-398.615680
4746.521996	266.201448	4173.743813	-403.675171
4746.400850	269.237143	4173.864427	-405.698968
4746.279705	263.165754	4173.985039	-409.746561
4746.158562	248.999179	4174.105650	-412.782255
4746.037421	226.737419	4174.226259	-412.782255
4745.916282	203.463761	4174.346866	-411.770357
4745.795145	184.237695	4174.467471	-408.734662
4745.674010	172.094917	4174.588074	-402.663273
4745.552876	168.047324	4174.708676	-396.591883
4745.431745	168.047324	4174.829276	-392.544290
4745.310615	171.083018	4174.949874	-392.544290
4745.189487	169.059222	4175.070471	-394.568087
4745.068361	167.035426	4175.191065	-396.591883
4744.947237	155.904545	4175.311658	-398.615680
4744.826115	143.761767	4175.432249	-401.651375
4744.704994	127.571396	4175.552838	-401.651375
4744.583876	110.369127	4175.673426	-402.663273
4744.462759	89.119264	4175.794012	-402.663273
4744.341644	70.905097	4175.914596	-401.651375
4744.220531	52.690929	4176.035178	-398.615680
4744.099420	38.524354	4176.155759	-396.591883
4743.978311	28.405372	4176.276337	-393.556189
4743.857204	24.357779	4176.396914	-388.496697
4743.736098	25.369678	4176.517490	-386.472901
4743.614995	26.381576	4176.638063	-384.449104
4743.493893	23.345881	4176.758635	-386.472901
4743.372793	16.262594	4176.879205	-390.520494
4743.251695	6.143612	4176.999773	-394.568087
4743.130599	-11.058658	4177.120339	-402.663273
4743.009504	-25.225233	4177.240904	-402.663273
4742.888412	-38.379910	4177.361467	-403.675171
4742.767321	-46.475095	4177.482028	-398.615680
4742.646233	-54.570281	4177.602588	-394.568087
4742.525146	-59.629772	4177.723145	-391.532392
4742.404061	-70.760652	4177.843701	-392.544290
4742.282978	-81.891533	4177.964256	-391.532392
4742.161896	-95.046210	4178.084808	-397.603782
4742.040817	-109.212785	4178.205359	-399.627578
4741.919739	-121.355563	4178.325908	-397.603782
4741.798663	-129.450749	4178.446455	-395.579985
4741.677589	-133.498342	4178.567001	-394.568087
4741.556517	-136.534037	4178.687544	-395.579985
4741.435447	-139.569731	4178.808086	-394.568087
4741.314379	-143.617324	4178.928627	-398.615680
4741.193312	-148.676815	4179.049165	-398.615680
4741.072247	-152.724408	4179.169702	-399.627578
4740.951185	-154.748205	4179.290237	-400.639476
4740.830123	-161.831492	4179.410770	-399.627578
4740.709064	-166.890983	4179.531302	-399.627578
4740.588007	-171.950475	4179.651832	-400.639476
4740.466952	-181.057559	4179.772360	-399.627578
4740.345898	-194.212236	4179.892886	-400.639476
4740.224846	-209.390709	4180.013411	-396.591883
4740.103796	-227.604877	4180.133934	-398.615680
4739.982748	-242.783351	4180.254455	-395.579985
4739.861702	-255.938028	4180.374974	-395.579985
4739.740657	-262.009417	4180.495492	-395.579985
4739.619615	-265.045112	4180.616008	-395.579985
4739.498574	-263.021315	4180.736523	-393.556189
4739.377535	-259.985621	4180.857035	-393.556189
4739.256498	-265.045112	4180.977546	-394.568087
4739.135463	-267.068908	4181.098055	-397.603782
4739.014429	-278.199789	4181.218562	-397.603782
4738.893398	-289.330669	4181.339068	-397.603782
4738.772368	-298.437754	4181.459572	-397.603782
4738.651340	-301.473448	4181.580074	-398.615680
4738.530314	-303.497245	4181.700575	-395.579985
4738.409290	-307.544838	4181.821073	-395.579985
4738.288267	-315.640024	4181.941571	-392.544290
4738.167246	-331.830396	4182.062066	-393.556189
4738.046228	-348.020768	4182.182560	-392.544290
4737.925211	-364.211139	4182.303051	-394.568087
4737.804196	-375.342020	4182.423542	-394.568087
4737.683182	-379.389613	4182.544030	-395.579985
4737.562171	-379.389613	4182.664517	-400.639476
4737.441161	-378.377715	4182.785002	-403.675171
4737.320153	-381.413410	4182.905485	-402.663273
4737.199147	-392.544290	4183.025967	-403.675171
4737.078143	-409.746561	4183.146447	-404.687069
4736.957141	-432.008322	4183.266925	-403.675171
4736.836140	-450.222491	4183.387402	-404.687069
4736.715142	-463.377168	4183.507876	-402.663273
4736.594145	-469.448558	4183.628349	-399.627578
4736.473150	-467.424761	4183.748821	-397.603782
4736.352156	-469.448558	4183.869291	-394.568087
4736.231165	-472.484253	4183.989759	-396.591883
4736.110175	-479.567540	4184.110225	-395.579985
4735.989187	-488.674625	4184.230689	-398.615680
4735.868201	-502.841200	4184.351152	-400.639476
4735.747217	-515.995878	4184.471613	-402.663273
4735.626235	-533.198148	4184.592073	-402.663273
4735.505254	-549.388521	4184.712531	-401.651375
4735.384276	-563.555097	4184.832987	-399.627578
4735.263299	-574.685977	4184.953441	-397.603782
4735.142324	-585.816859	4185.073894	-395.579985
4735.021350	-589.864452	4185.194345	-394.568087
4734.900379	-595.935841	4185.314794	-395.579985
4734.779409	-596.947740	4185.435242	-397.603782
4734.658441	-602.007231	4185.555688	-401.651375
4734.537475	-602.007231	4185.676132	-401.651375
4734.416511	-602.007231	4185.796575	-406.710866
4734.295548	-600.995333	4185.917015	-407.722764
4734.174588	-598.971536	4186.037455	-408.734662
4734.053629	-606.054824	4186.157892	-407.722764
4733.932672	-618.197603	4186.278328	-408.734662
4733.811717	-635.399874	4186.398762	-410.758459
4733.690763	-655.637840	4186.519194	-409.746561
4733.569812	-673.852009	4186.639625	-408.734662
4733.448862	-690.042381	4186.760054	-407.722764
4733.327914	-696.113771	4186.880481	-404.687069
4733.206967	-702.185161	4187.000907	-397.603782
4733.086023	-711.292245	4187.121331	-394.568087
4732.965080	-720.399330	4187.241753	-390.520494
4732.844140	-735.577805	4187.362174	-392.544290
4732.723200	-746.708686	4187.482593	-392.544290
4732.602263	-758.851465	4187.603010	-398.615680
4732.481328	-766.946652	4187.723426	-401.651375
4732.360394	-774.029940	4187.843840	-405.698968
4732.239462	-778.077533	4187.964252	-406.710866
4732.118532	-783.137024	4188.084663	-405.698968
4731.997604	-785.160821	4188.205072	-405.698968
4731.876677	-788.196516	4188.325479	-403.675171
4731.755753	-786.172719	4188.445884	-402.663273
4731.634830	-779.089431	4188.566288	-402.663273
4731.513909	-770.994245	4188.686690	-403.675171
4731.392989	-762.899058	4188.807091	-404.687069
4731.272072	-759.863364	4188.927490	-405.698968
4731.151156	-763.910957	4189.047887	-402.663273
4731.030242	-780.101330	4189.168283	-398.615680
4730.909330	-801.351194	4189.288677	-390.520494
4730.788420	-822.601058	4189.409069	-388.496697
4730.667511	-834.743838	4189.529459	-386.472901
4730.546604	-836.767635	4189.649848	-391.532392
4730.425699	-827.660550	4189.770235	-395.579985
4730.304796	-811.470177	4189.890621	-402.663273
4730.183895	-796.291702	4190.011005	-403.675171
4730.062995	-786.172719	4190.131387	-405.698968
4729.942097	-782.125126	4190.251768	-403.675171
4729.821201	-789.208414	4190.372147	-396.591883
4729.700306	-800.339296	4190.492524	-392.544290
4729.579414	-806.410685	4190.612900	-394.568087
4729.458523	-814.505872	4190.733274	-398.615680
4729.337634	-817.541567	4190.853646	-400.639476
4729.216747	-814.505872	4190.974017	-402.663273
4729.095861	-811.470177	4191.094386	-401.651375
4728.974978	-805.398787	4191.214753	-402.663273
4728.854096	-805.398787	4191.335119	-398.615680
4728.733216	-810.458279	4191.455483	-398.615680
4728.612337	-822.601058	4191.575845	-398.615680
4728.491461	-835.755736	4191.696206	-399.627578
4728.370586	-851.946109	4191.816565	-398.615680
4728.249713	-867.124584	4191.936922	-401.651375
4728.128842	-876.231669	4192.057278	-401.651375
4728.007972	-879.267364	4192.177632	-403.675171
4727.887104	-877.243567	4192.297985	-398.615680
4727.766238	-872.184075	4192.418336	-398.615680
4727.645374	-869.148380	4192.538685	-398.615680
4727.524512	-872.184075	4192.659033	-398.615680
4727.403651	-878.255465	4192.779379	-398.615680
4727.282792	-881.291160	4192.899723	-400.639476
4727.161935	-884.326855	4193.020066	-399.627578
4727.041080	-886.350652	4193.140407	-401.651375
4726.920226	-882.303059	4193.260746	-401.651375
4726.799374	-881.291160	4193.381084	-404.687069
4726.678524	-880.279262	4193.501420	-406.710866
4726.557676	-887.362550	4193.621755	-409.746561
4726.436829	-898.493432	4193.742087	-409.746561
4726.315984	-913.671906	4193.862419	-409.746561
4726.195141	-927.838483	4193.982748	-409.746561
4726.074300	-936.945568	4194.103076	-404.687069
4725.953461	-940.993161	4194.223403	-402.663273
4725.832623	-942.005059	4194.343727	-401.651375
4725.711787	-933.909873	4194.464050	-400.639476
4725.590952	-921.767093	4194.584372	-400.639476
4725.470120	-905.576720	4194.704692	-399.627578
4725.349289	-885.338754	4194.825010	-401.651375
4725.228460	-864.088889	4194.945327	-404.687069
4725.107633	-838.791431	4195.065642	-406.710866
4724.986807	-815.517770	4195.185955	-407.722764
4724.865984	-799.327397	4195.306267	-406.710866
4724.745162	-786.172719	4195.426577	-405.698968
4724.624341	-782.125126	4195.546885	-405.698968
4724.503523	-780.101330	4195.667192	-403.675171
4724.382706	-779.089431	4195.787497	-400.639476
4724.261891	-772.006143	4195.907801	-396.591883
4724.141078	-762.899058	4196.028103	-395.579985
4724.020266	-747.720584	4196.148403	-393.556189
4723.899457	-731.530211	4196.268702	-394.568087
4723.778649	-716.351737	4196.388999	-396.591883
4723.657842	-705.220856	4196.509295	-400.639476
4723.537038	-701.173263	4196.629589	-404.687069
4723.416235	-700.161364	4196.749881	-407.722764
4723.295434	-705.220856	4196.870172	-407.722764
4723.174635	-706.232754	4196.990461	-404.687069
4723.053837	-706.232754	4197.110748	-402.663273
4722.933041	-701.173263	4197.231034	-400.639476
4722.812247	-693.078076	4197.351318	-396.591883
4722.691455	-684.982890	4197.471601	-398.615680
4722.570664	-680.935297	4197.591882	-398.615680
4722.449875	-683.970992	4197.712162	-397.603782
4722.329088	-693.078076	4197.832439	-396.591883
4722.208303	-706.232754	4197.952716	-396.591883
4722.087519	-723.435025	4198.072990	-394.568087
4721.966737	-737.601601	4198.193263	-395.579985
4721.845957	-748.732482	4198.313535	-397.603782
4721.725178	-754.803872	4198.433805	-401.651375
4721.604402	-755.815770	4198.554073	-400.639476
4721.483627	-755.815770	4198.674340	-399.627578
4721.362853	-750.756279	4198.794605	-398.615680
4721.242082	-747.720584	4198.914868	-393.556189
4721.121312	-743.672991	4199.035130	-391.532392
4721.000544	-741.649194	4199.155390	-391.532392
4720.879778	-742.661093	4199.275649	-393.556189
4720.759013	-745.696787	4199.395906	-392.544290
4720.638250	-749.744381	4199.516161	-396.591883
4720.517489	-753.791974	4199.636415	-396.591883
4720.396729	-754.803872	4199.756668	-395.579985
4720.275972	-751.768177	4199.876918	-395.579985
4720.155216	-738.613499	4199.997167	-396.591883
4720.034461	-722.423127	4200.117415	-399.627578
4719.913709	-704.208957	4200.237661	-400.639476
4719.792958	-691.054280	4200.357905	-402.663273
4719.672209	-683.970992	4200.478148	-402.663273
4719.551461	-679.923399	4200.598389	-403.675171
4719.430716	-682.959093	4200.718629	-398.615680
4719.309972	-687.006687	4200.838867	-399.627578
4719.189230	-688.018585	4200.959103	-398.615680
4719.068489	-691.054280	4201.079338	-399.627578
4718.947750	-694.089975	4201.199571	-400.639476
4718.827013	-697.125669	4201.319803	-400.639476
4718.706278	-701.173263	4201.440033	-400.639476
4718.585544	-701.173263	4201.560262	-397.603782
4718.464812	-698.137568	4201.680489	-396.591883
4718.344082	-697.125669	4201.800714	-393.556189
4718.223353	-695.101873	4201.920938	-392.544290
4718.102626	-699.149466	4202.041160	-391.532392
4717.981901	-704.208957	4202.161381	-393.556189
4717.861178	-707.244652	4202.281600	-392.544290
4717.740456	-712.304144	4202.401818	-394.568087
4717.619736	-715.339839	4202.522034	-393.556189
4717.499018	-713.316042	4202.642248	-395.579985
4717.378301	-713.316042	4202.762461	-398.615680
4717.257587	-716.351737	4202.882672	-401.651375
4717.136873	-719.387432	4203.002882	-404.687069
4717.016162	-726.470720	4203.123090	-407.722764
4716.895452	-733.554008	4203.243296	-406.710866
4716.774744	-735.577805	4203.363501	-402.663273
4716.654038	-740.637296	4203.483705	-395.579985
4716.533333	-738.613499	4203.603907	-391.532392
4716.412630	-735.577805	4203.724107	-390.520494
4716.291929	-734.565906	4203.844306	-390.520494
4716.171229	-730.518313	4203.964503	-399.627578
4716.050532	-734.565906	4204.084699	-403.675171
4715.929835	-741.649194	4204.204893	-406.710866
4715.809141	-749.744381	4204.325085	-409.746561
4715.688448	-754.803872	4204.445276	-406.710866
4715.567757	-757.839567	4204.565465	-401.651375
4715.447068	-758.851465	4204.685653	-398.615680
4715.326380	-752.780076	4204.805840	-397.603782
4715.205694	-747.720584	4204.926024	-398.615680
4715.085010	-745.696787	4205.046208	-398.615680
4714.964327	-739.625398	4205.166389	-399.627578
4714.843647	-736.589703	4205.286569	-398.615680
4714.722967	-734.565906	4205.406748	-400.639476
4714.602290	-733.554008	4205.526925	-401.651375
4714.481614	-734.565906	4205.647100	-401.651375
4714.360940	-740.637296	4205.767274	-401.651375
4714.240267	-749.744381	4205.887446	-402.663273
4714.119597	-754.803872	4206.007617	-398.615680
4713.998928	-758.851465	4206.127786	-398.615680
4713.878260	-761.887160	4206.247954	-395.579985
4713.757595	-759.863364	4206.368120	-397.603782
4713.636931	-757.839567	4206.488285	-397.603782
4713.516268	-759.863364	4206.608448	-397.603782
4713.395608	-758.851465	4206.728610	-398.615680
4713.274949	-759.863364	4206.848770	-398.615680
4713.154291	-762.899058	4206.968928	-398.615680
4713.033636	-767.958550	4207.089085	-396.591883
4712.912982	-773.018041	4207.209240	-395.579985
4712.792330	-782.125126	4207.329394	-395.579985
4712.671679	-788.196516	4207.449547	-396.591883
4712.551030	-793.256007	4207.569697	-393.556189
4712.430383	-794.267906	4207.689847	-393.556189
4712.309738	-794.267906	4207.809994	-391.532392
4712.189094	-792.244109	4207.930141	-388.496697
4712.068452	-787.184618	4208.050285	-386.472901
4711.947811	-790.220313	4208.170428	-387.484799
4711.827172	-791.232211	4208.290570	-390.520494
4711.706535	-800.339296	4208.410710	-393.556189
4711.585900	-810.458279	4208.530849	-395.579985
4711.465266	-822.601058	4208.650986	-394.568087
4711.344634	-829.684346	4208.771121	-392.544290
4711.224003	-834.743838	4208.891255	-391.532392
4711.103375	-833.731940	4209.011387	-391.532392
4710.982748	-829.684346	4209.131518	-390.520494
4710.862122	-822.601058	4209.251648	-392.544290
4710.741498	-819.565363	4209.371776	-398.615680
4710.620876	-819.565363	4209.491902	-398.615680
4710.500256	-822.601058	4209.612027	-397.603782
4710.379637	-828.672448	4209.732150	-396.591883
4710.259020	-837.779533	4209.852272	-394.568087
4710.138404	-845.874719	4209.972392	-395.579985
4710.017791	-848.910414	4210.092511	-395.579985
