scanstart [nm]: 5025.000000
slope [nm/V]: 42.182656
k [N/m]: 0.074466
velocity [nm/s]: 400.000000
6:42:21 PM

4993.813668	1458.217470	4395.241257	-249.866638
4993.692392	1465.300757	4395.361616	-248.854740
4993.571117	1474.407840	4395.481974	-247.842842
4993.449843	1484.526821	4395.602330	-245.819045
4993.328571	1500.717191	4395.722685	-245.819045
4993.207301	1515.895663	4395.843038	-244.807147
4993.086031	1523.990848	4395.963390	-241.771452
4992.964763	1519.943255	4396.083740	-239.747656
4992.843497	1501.729089	4396.204089	-239.747656
4992.722232	1471.372145	4396.324436	-238.735758
4992.600968	1444.050896	4396.444782	-239.747656
4992.479706	1420.777239	4396.565127	-240.759554
4992.358445	1406.610665	4396.685469	-242.783351
4992.237185	1397.503582	4396.805811	-245.819045
4992.115927	1384.348906	4396.926150	-245.819045
4991.994670	1373.218027	4397.046489	-244.807147
4991.873415	1366.134740	4397.166825	-241.771452
4991.752161	1364.110944	4397.287161	-236.711961
4991.630908	1365.122842	4397.407494	-237.723859
4991.509657	1369.170434	4397.527827	-235.700063
4991.388407	1374.229925	4397.648157	-237.723859
4991.267159	1375.241823	4397.768487	-241.771452
4991.145912	1371.194231	4397.888814	-242.783351
4991.024666	1360.063351	4398.009141	-240.759554
4990.903422	1334.765898	4398.129466	-238.735758
4990.782179	1307.444648	4398.249789	-239.747656
4990.660938	1283.159093	4398.370111	-248.854740
4990.539698	1270.004417	4398.490431	-252.902333
4990.418459	1268.992519	4398.610750	-255.938028
4990.297222	1268.992519	4398.731067	-253.914231
4990.175986	1268.992519	4398.851383	-245.819045
4990.054751	1259.885436	4398.971698	-236.711961
4989.933518	1247.742658	4399.092011	-227.604877
4989.812287	1232.564186	4399.212322	-227.604877
4989.691056	1213.338122	4399.332632	-232.664368
4989.569827	1200.183446	4399.452940	-238.735758
4989.448600	1187.028770	4399.573247	-244.807147
4989.327374	1182.981178	4399.693553	-248.854740
4989.206149	1178.933585	4399.813857	-243.795249
4989.084925	1175.897891	4399.934159	-243.795249
4988.963703	1174.885993	4400.054461	-245.819045
4988.842483	1171.850298	4400.174760	-245.819045
4988.721263	1171.850298	4400.295058	-248.854740
4988.600045	1163.755113	4400.415355	-250.878536
4988.478829	1151.612336	4400.535650	-251.890435
4988.357614	1132.386271	4400.655944	-250.878536
4988.236400	1118.219697	4400.776236	-245.819045
4988.115188	1105.065021	4400.896527	-242.783351
4987.993977	1088.874651	4401.016816	-240.759554
4987.872767	1072.684281	4401.137104	-237.723859
4987.751559	1050.422522	4401.257390	-239.747656
4987.630352	1026.136967	4401.377675	-242.783351
4987.509147	1011.970393	4401.497958	-246.830944
4987.387943	1004.887106	4401.618240	-247.842842
4987.266740	1002.863309	4401.738521	-242.783351
4987.145539	1003.875207	4401.858800	-236.711961
4987.024339	1008.934698	4401.979077	-226.592979
4986.903140	1009.946596	4402.099353	-223.557284
4986.781943	1005.899004	4402.219628	-225.581081
4986.660747	998.815717	4402.339901	-233.676267
4986.539553	988.696735	4402.460173	-245.819045
4986.418359	985.661041	4402.580443	-251.890435
4986.297168	984.649143	4402.700711	-251.890435
4986.175977	977.565856	4402.820979	-246.830944
4986.054788	967.446874	4402.941245	-239.747656
4985.933601	947.208912	4403.061509	-236.711961
4985.812415	920.899560	4403.181772	-237.723859
4985.691230	897.625902	4403.302033	-237.723859
4985.570046	878.399838	4403.422293	-241.771452
4985.448864	867.268958	4403.542552	-242.783351
4985.327684	860.185671	4403.662809	-244.807147
4985.206504	856.138078	4403.783064	-245.819045
4985.085326	851.078588	4403.903319	-243.795249
4984.964150	837.923912	4404.023571	-239.747656
4984.842975	823.757338	4404.143822	-237.723859
4984.721801	813.638356	4404.264072	-237.723859
4984.600628	810.602662	4404.384321	-238.735758
4984.479457	809.590764	4404.504567	-241.771452
4984.358287	806.555069	4404.624813	-240.759554
4984.237119	803.519375	4404.745057	-235.700063
4984.115952	797.447986	4404.865299	-234.688165
4983.994786	790.364699	4404.985541	-234.688165
4983.873622	783.281412	4405.105780	-239.747656
4983.752459	776.198125	4405.226018	-244.807147
4983.631297	769.114838	4405.346255	-244.807147
4983.510137	760.007754	4405.466490	-240.759554
4983.388978	745.841180	4405.586724	-238.735758
4983.267821	727.627013	4405.706957	-234.688165
4983.146665	712.448541	4405.827188	-237.723859
4983.025510	697.270069	4405.947417	-240.759554
4982.904357	683.103494	4406.067645	-241.771452
4982.783205	678.044004	4406.187872	-243.795249
4982.662054	672.984513	4406.308097	-245.819045
4982.540905	665.901226	4406.428321	-245.819045
4982.419757	657.806040	4406.548543	-239.747656
4982.298610	652.746550	4406.668764	-236.711961
4982.177465	643.639466	4406.788984	-233.676267
4982.056321	632.508586	4406.909202	-228.616775
4981.935179	617.330114	4407.029418	-228.616775
4981.814038	600.127845	4407.149633	-235.700063
4981.692898	584.949373	4407.269847	-242.783351
4981.571760	568.759002	4407.390059	-252.902333
4981.450623	561.675715	4407.510270	-253.914231
4981.329487	555.604326	4407.630480	-252.902333
4981.208353	550.544835	4407.750688	-243.795249
4981.087220	544.473446	4407.870894	-237.723859
4980.966088	536.378261	4407.991100	-234.688165
4980.844958	527.271178	4408.111303	-233.676267
4980.723829	517.152196	4408.231506	-235.700063
4980.602701	503.997520	4408.351706	-236.711961
4980.481575	490.842844	4408.471906	-237.723859
4980.360450	480.723862	4408.592104	-238.735758
4980.239327	474.652473	4408.712300	-240.759554
4980.118205	469.592982	4408.832496	-242.783351
4979.997084	463.521593	4408.952689	-243.795249
4979.875964	457.450204	4409.072882	-244.807147
4979.754846	448.343120	4409.193073	-242.783351
4979.633730	434.176546	4409.313262	-239.747656
4979.512614	421.021870	4409.433450	-239.747656
4979.391500	412.926684	4409.553637	-241.771452
4979.270388	406.855295	4409.673822	-244.807147
4979.149276	401.795804	4409.794006	-242.783351
4979.028166	395.724415	4409.914188	-239.747656
4978.907058	384.593535	4410.034369	-233.676267
4978.785951	366.379368	4410.154549	-232.664368
4978.664845	344.117608	4410.274727	-232.664368
4978.543740	321.855848	4410.394903	-241.771452
4978.422637	310.724968	4410.515079	-242.783351
4978.301535	307.689274	4410.635253	-243.795249
4978.180434	308.701172	4410.755425	-238.735758
4978.059335	310.724968	4410.875596	-232.664368
4977.938237	312.748765	4410.995766	-231.652470
4977.817141	305.665477	4411.115934	-232.664368
4977.696046	297.570292	4411.236101	-236.711961
4977.574952	292.510801	4411.356266	-238.735758
4977.453860	285.427514	4411.476430	-240.759554
4977.332769	278.344226	4411.596593	-238.735758
4977.211679	264.177652	4411.716754	-238.735758
4977.090590	248.999179	4411.836914	-235.700063
4976.969503	236.856401	4411.957073	-240.759554
4976.848418	232.808808	4412.077230	-242.783351
4976.727333	235.844503	4412.197385	-242.783351
4976.606250	243.939688	4412.317539	-240.759554
4976.485168	246.975383	4412.437692	-241.771452
4976.364088	237.868299	4412.557844	-241.771452
4976.243009	216.618437	4412.677994	-242.783351
4976.121931	189.297186	4412.798142	-243.795249
4976.000855	169.059222	4412.918289	-242.783351
4975.879780	158.940240	4413.038435	-240.759554
4975.758706	153.880749	4413.158580	-236.711961
4975.637634	147.809360	4413.278723	-236.711961
4975.516563	140.726073	4413.398864	-238.735758
4975.395493	130.607091	4413.519004	-239.747656
4975.274425	125.547600	4413.639143	-238.735758
4975.153358	129.595192	4413.759281	-236.711961
4975.032293	138.702276	4413.879417	-236.711961
4974.911228	150.845055	4413.999551	-235.700063
4974.790165	151.856953	4414.119685	-237.723859
4974.669104	142.749869	4414.239817	-239.747656
4974.548043	118.464312	4414.359947	-242.783351
4974.426984	84.059773	4414.480076	-243.795249
4974.305927	49.655235	4414.600204	-245.819045
4974.184871	21.322085	4414.720330	-244.807147
4974.063816	9.179306	4414.840455	-244.807147
4973.942762	5.131713	4414.960579	-246.830944
4973.821710	10.191205	4415.080701	-247.842842
4973.700659	16.262594	4415.200822	-246.830944
4973.579609	24.357779	4415.320941	-241.771452
4973.458561	28.405372	4415.441059	-241.771452
4973.337514	31.441067	4415.561176	-242.783351
4973.216468	27.393474	4415.681291	-244.807147
4973.095424	16.262594	4415.801405	-244.807147
4972.974381	4.119815	4415.921517	-243.795249
4972.853339	-12.070556	4416.041628	-240.759554
4972.732299	-31.296622	4416.161738	-240.759554
4972.611260	-50.522688	4416.281846	-245.819045
4972.490222	-67.724958	4416.401953	-250.878536
4972.369186	-80.879635	4416.522059	-255.938028
4972.248151	-88.974820	4416.642163	-255.938028
4972.127117	-93.022413	4416.762266	-247.842842
4972.006085	-92.010515	4416.882368	-243.795249
4971.885054	-85.939126	4417.002468	-237.723859
4971.764024	-85.939126	4417.122567	-235.700063
4971.642996	-88.974820	4417.242664	-236.711961
4971.521969	-98.081904	4417.362760	-237.723859
4971.400943	-113.260378	4417.482855	-239.747656
4971.279919	-131.474546	4417.602948	-241.771452
4971.158896	-144.629222	4417.723040	-240.759554
4971.037874	-151.712510	4417.843130	-243.795249
4970.916854	-150.700612	4417.963219	-246.830944
4970.795835	-151.712510	4418.083307	-249.866638
4970.674817	-152.724408	4418.203394	-250.878536
4970.553800	-160.819594	4418.323479	-248.854740
4970.432785	-171.950475	4418.443562	-241.771452
4970.311771	-178.021864	4418.563645	-238.735758
4970.190759	-184.093253	4418.683726	-236.711961
4970.069748	-184.093253	4418.803805	-239.747656
4969.948738	-185.105151	4418.923884	-239.747656
4969.827729	-194.212236	4419.043961	-241.771452
4969.706722	-216.473997	4419.164036	-238.735758
4969.585716	-235.700063	4419.284110	-240.759554
4969.464712	-251.890435	4419.404183	-240.759554
4969.343708	-258.973722	4419.524255	-249.866638
4969.222706	-258.973722	4419.644325	-253.914231
4969.101706	-256.949926	4419.764393	-255.938028
4968.980706	-256.949926	4419.884461	-254.926129
4968.859708	-265.045112	4420.004527	-254.926129
4968.738712	-274.152196	4420.124592	-248.854740
4968.617716	-280.223585	4420.244655	-248.854740
4968.496722	-278.199789	4420.364717	-244.807147
4968.375730	-274.152196	4420.484778	-245.819045
4968.254738	-276.175992	4420.604837	-245.819045
4968.133748	-292.366364	4420.724895	-249.866638
4968.012759	-309.568634	4420.844951	-252.902333
4967.891772	-329.806599	4420.965007	-254.926129
4967.770786	-337.901785	4421.085060	-255.938028
4967.649801	-336.889887	4421.205113	-248.854740
4967.528817	-330.818497	4421.325164	-243.795249
4967.407835	-330.818497	4421.445214	-238.735758
4967.286854	-333.854192	4421.565263	-232.664368
4967.165874	-339.925582	4421.685310	-233.676267
4967.044896	-348.020768	4421.805356	-240.759554
4966.923919	-361.175445	4421.925400	-243.795249
4966.802943	-374.330122	4422.045443	-249.866638
4966.681969	-389.508596	4422.165485	-248.854740
4966.560996	-409.746561	4422.285526	-243.795249
4966.440024	-425.936933	4422.405565	-240.759554
4966.319054	-434.032119	4422.525602	-234.688165
4966.198085	-438.079712	4422.645639	-233.676267
4966.077117	-430.996424	4422.765674	-231.652470
4965.956150	-415.817950	4422.885708	-230.640572
4965.835185	-398.615680	4423.005740	-230.640572
4965.714221	-382.425308	4423.125771	-231.652470
4965.593258	-364.211139	4423.245801	-234.688165
4965.472297	-354.092157	4423.365830	-238.735758
4965.351337	-350.044564	4423.485857	-241.771452
4965.230378	-357.127852	4423.605883	-242.783351
4965.109421	-365.223038	4423.725907	-241.771452
4964.988465	-374.330122	4423.845930	-241.771452
4964.867510	-375.342020	4423.965952	-240.759554
4964.746556	-367.246834	4424.085972	-242.783351
4964.625604	-357.127852	4424.205992	-242.783351
4964.504653	-345.996971	4424.326009	-239.747656
4964.383704	-337.901785	4424.446026	-236.711961
4964.262755	-334.866090	4424.566041	-231.652470
4964.141808	-336.889887	4424.686055	-232.664368
4964.020863	-342.961276	4424.806067	-237.723859
4963.899918	-353.080259	4424.926079	-240.759554
4963.778975	-371.294427	4425.046088	-243.795249
4963.658033	-389.508596	4425.166097	-242.783351
4963.537093	-406.710866	4425.286104	-241.771452
4963.416154	-415.817950	4425.406110	-245.819045
4963.295216	-416.829848	4425.526115	-245.819045
4963.174279	-405.698968	4425.646118	-243.795249
4963.053344	-387.484799	4425.766120	-241.771452
4962.932410	-374.330122	4425.886121	-239.747656
4962.811477	-370.282529	4426.006120	-237.723859
4962.690546	-377.365817	4426.126118	-240.759554
4962.569616	-395.579985	4426.246115	-241.771452
4962.448687	-410.758459	4426.366110	-244.807147
4962.327759	-421.889340	4426.486104	-249.866638
4962.206833	-420.877441	4426.606097	-251.890435
4962.085908	-413.794154	4426.726088	-250.878536
4961.964984	-404.687069	4426.846078	-248.854740
4961.844062	-397.603782	4426.966067	-245.819045
4961.723141	-393.556189	4427.086055	-244.807147
4961.602221	-392.544290	4427.206041	-244.807147
4961.481303	-391.532392	4427.326026	-245.819045
4961.360385	-393.556189	4427.446009	-243.795249
4961.239469	-399.627578	4427.565992	-238.735758
4961.118555	-410.758459	4427.685973	-236.711961
4960.997641	-420.877441	4427.805952	-235.700063
4960.876729	-427.960729	4427.925931	-234.688165
4960.755819	-430.996424	4428.045908	-237.723859
4960.634909	-436.055915	4428.165884	-239.747656
4960.514001	-440.103508	4428.285858	-240.759554
4960.393094	-448.198694	4428.405831	-241.771452
4960.272188	-454.270084	4428.525803	-238.735758
4960.151284	-456.293880	4428.645774	-234.688165
4960.030381	-453.258186	4428.765743	-234.688165
4959.909479	-441.115407	4428.885711	-233.676267
4959.788579	-434.032119	4429.005677	-230.640572
4959.667680	-434.032119	4429.125643	-230.640572
4959.546782	-439.091610	4429.245607	-231.652470
4959.425885	-446.174898	4429.365570	-237.723859
4959.304990	-452.246287	4429.485531	-240.759554
4959.184096	-457.305779	4429.605491	-240.759554
4959.063203	-463.377168	4429.725450	-241.771452
4958.942311	-468.436660	4429.845408	-240.759554
4958.821421	-474.508049	4429.965364	-241.771452
4958.700532	-472.484253	4430.085319	-238.735758
4958.579645	-458.317677	4430.205273	-236.711961
4958.458758	-434.032119	4430.325225	-231.652470
4958.337873	-408.734662	4430.445177	-229.628674
4958.216989	-394.568087	4430.565126	-234.688165
4958.096107	-397.603782	4430.685075	-241.771452
4957.975226	-408.734662	4430.805022	-249.866638
4957.854346	-425.936933	4430.924968	-252.902333
4957.733467	-439.091610	4431.044913	-250.878536
4957.612590	-444.151101	4431.164856	-244.807147
4957.491713	-437.067814	4431.284799	-239.747656
4957.370839	-432.008322	4431.404740	-242.783351
4957.249965	-429.984526	4431.524679	-252.902333
4957.129093	-425.936933	4431.644617	-256.949926
4957.008222	-422.901238	4431.764554	-255.938028
4956.887352	-415.817950	4431.884490	-249.866638
4956.766483	-412.782255	4432.004425	-240.759554
4956.645616	-412.782255	4432.124358	-236.711961
4956.524750	-422.901238	4432.244290	-237.723859
4956.403886	-432.008322	4432.364220	-239.747656
4956.283022	-443.139203	4432.484150	-245.819045
4956.162160	-446.174898	4432.604078	-246.830944
4956.041299	-444.151101	4432.724005	-243.795249
4955.920440	-434.032119	4432.843930	-240.759554
4955.799581	-424.925035	4432.963855	-238.735758
4955.678724	-415.817950	4433.083778	-241.771452
4955.557869	-407.722764	4433.203699	-243.795249
4955.437014	-403.675171	4433.323620	-244.807147
4955.316161	-406.710866	4433.443539	-244.807147
4955.195309	-413.794154	4433.563457	-240.759554
4955.074458	-421.889340	4433.683374	-239.747656
4954.953609	-430.996424	4433.803289	-241.771452
4954.832761	-436.055915	4433.923203	-244.807147
4954.711914	-435.044017	4434.043116	-247.842842
4954.591068	-429.984526	4434.163028	-247.842842
4954.470224	-411.770357	4434.282938	-243.795249
4954.349381	-387.484799	4434.402847	-235.700063
4954.228539	-359.151648	4434.522755	-236.711961
4954.107699	-340.937480	4434.642661	-239.747656
4953.986859	-338.913683	4434.762567	-246.830944
4953.866021	-352.068361	4434.882471	-248.854740
4953.745185	-370.282529	4435.002373	-244.807147
4953.624349	-382.425308	4435.122275	-236.711961
4953.503515	-386.472901	4435.242175	-234.688165
4953.382682	-381.413410	4435.362074	-235.700063
4953.261850	-375.342020	4435.481972	-239.747656
4953.141020	-374.330122	4435.601868	-246.830944
4953.020191	-378.377715	4435.721764	-250.878536
4952.899363	-382.425308	4435.841658	-247.842842
4952.778536	-386.472901	4435.961550	-243.795249
4952.657711	-383.437206	4436.081442	-238.735758
4952.536887	-382.425308	4436.201332	-236.711961
4952.416064	-378.377715	4436.321221	-236.711961
4952.295242	-369.270631	4436.441109	-240.759554
4952.174422	-356.115953	4436.560995	-243.795249
4952.053603	-333.854192	4436.680880	-245.819045
4951.932785	-309.568634	4436.800764	-243.795249
4951.811969	-291.354466	4436.920647	-240.759554
4951.691153	-284.271178	4437.040528	-239.747656
4951.570339	-292.366364	4437.160409	-239.747656
4951.449526	-305.521041	4437.280288	-241.771452
4951.328715	-313.616227	4437.400165	-246.830944
4951.207905	-316.651922	4437.520042	-241.771452
4951.087096	-308.556736	4437.639917	-239.747656
4950.966288	-298.437754	4437.759791	-237.723859
4950.845481	-290.342568	4437.879664	-240.759554
4950.724676	-288.318771	4437.999535	-244.807147
4950.603872	-290.342568	4438.119406	-246.830944
4950.483069	-295.402059	4438.239275	-246.830944
4950.362268	-300.461550	4438.359142	-239.747656
4950.241468	-304.509143	4438.479009	-235.700063
4950.120669	-305.521041	4438.598874	-232.664368
4949.999871	-304.509143	4438.718738	-236.711961
4949.879074	-299.449652	4438.838601	-241.771452
4949.758279	-293.378262	4438.958463	-247.842842
4949.637485	-288.318771	4439.078323	-250.878536
4949.516692	-288.318771	4439.198182	-245.819045
4949.395901	-288.318771	4439.318040	-242.783351
4949.275111	-287.306873	4439.437897	-239.747656
4949.154322	-285.283077	4439.557752	-239.747656
4949.033534	-285.283077	4439.677607	-244.807147
4948.912748	-289.330669	4439.797460	-251.890435
4948.791962	-292.366364	4439.917311	-252.902333
4948.671178	-294.390161	4440.037162	-253.914231
4948.550396	-292.366364	4440.157011	-250.878536
4948.429614	-290.342568	4440.276859	-246.830944
4948.308834	-290.342568	4440.396706	-240.759554
4948.188055	-295.402059	4440.516552	-238.735758
4948.067277	-295.402059	4440.636396	-239.747656
4947.946501	-289.330669	4440.756239	-237.723859
4947.825725	-284.271178	4440.876081	-236.711961
4947.704951	-275.164094	4440.995922	-234.688165
4947.584179	-272.128399	4441.115762	-233.676267
4947.463407	-273.140298	4441.235600	-233.676267
4947.342637	-275.164094	4441.355437	-236.711961
4947.221868	-274.152196	4441.475273	-238.735758
4947.101100	-272.128399	4441.595107	-244.807147
4946.980333	-268.080807	4441.714941	-243.795249
4946.859568	-266.057010	4441.834773	-244.807147
4946.738804	-268.080807	4441.954604	-241.771452
4946.618041	-269.092705	4442.074434	-235.700063
4946.497279	-272.128399	4442.194262	-233.676267
4946.376519	-269.092705	4442.314090	-236.711961
4946.255760	-268.080807	4442.433916	-241.771452
4946.135002	-267.068908	4442.553741	-247.842842
4946.014245	-266.057010	4442.673565	-246.830944
4945.893490	-268.080807	4442.793387	-243.795249
4945.772736	-268.080807	4442.913208	-242.783351
4945.651983	-269.092705	4443.033028	-242.783351
4945.531231	-269.092705	4443.152847	-247.842842
4945.410481	-272.128399	4443.272665	-250.878536
4945.289732	-276.175992	4443.392481	-246.830944
4945.168984	-277.187891	4443.512297	-244.807147
4945.048237	-273.140298	4443.632111	-238.735758
4944.927491	-271.116501	4443.751924	-233.676267
4944.806747	-265.045112	4443.871735	-234.688165
4944.686004	-260.997519	4443.991546	-235.700063
4944.565262	-258.973722	4444.111355	-238.735758
