scanstart [nm]: 4875.000000
slope [nm/V]: 42.182656
k [N/m]: 0.074466
velocity [nm/s]: 400.000000
6:29:09 PM

4841.992682	535.366363	4243.998472	-936.945568
4841.871688	547.509141	4244.118589	-936.945568
4841.750696	551.556734	4244.238704	-940.993161
4841.629705	554.592428	4244.358819	-939.981263
4841.508716	548.521039	4244.478932	-936.945568
4841.387728	534.354465	4244.599045	-934.921771
4841.266742	520.187890	4244.719156	-931.886076
4841.145758	502.985622	4244.839266	-929.862280
4841.024774	487.807149	4244.959375	-927.838483
4840.903793	477.688167	4245.079483	-927.838483
4840.782813	471.616778	4245.199590	-924.802788
4840.661834	469.592982	4245.319696	-918.731398
4840.540857	467.569186	4245.439801	-914.683805
4840.419881	462.509695	4245.559904	-914.683805
4840.298907	451.378815	4245.680007	-914.683805
4840.177935	435.188444	4245.800108	-919.743296
4840.056964	416.974277	4245.920209	-925.814686
4839.935994	395.724415	4246.040308	-932.897974
4839.815026	381.557841	4246.160406	-932.897974
4839.694060	367.391266	4246.280503	-932.897974
4839.573095	358.284183	4246.400599	-929.862280
4839.452131	346.141405	4246.520694	-926.826585
4839.331169	341.081914	4246.640788	-926.826585
4839.210209	332.986728	4246.760881	-925.814686
4839.089250	328.939136	4246.880972	-931.886076
4838.968293	326.915339	4247.001063	-932.897974
4838.847337	321.855848	4247.121152	-935.933669
4838.726382	313.760663	4247.241241	-933.909873
4838.605430	299.594088	4247.361328	-928.850381
4838.484478	284.415616	4247.481414	-925.814686
4838.363528	265.189550	4247.601499	-919.743296
4838.242580	252.034874	4247.721583	-915.695703
4838.121633	245.963484	4247.841666	-914.683805
4838.000688	244.951586	4247.961748	-916.707601
4837.879744	247.987281	4248.081829	-917.719500
4837.758802	248.999179	4248.201909	-923.790890
4837.637861	245.963484	4248.321987	-922.778991
4837.516922	238.880197	4248.442065	-925.814686
4837.395984	230.785012	4248.562141	-925.814686
4837.275048	219.654132	4248.682217	-923.790890
4837.154113	213.582742	4248.802291	-921.767093
4837.033179	201.439964	4248.922364	-922.778991
4836.912248	190.309084	4249.042437	-924.802788
4836.791317	178.166306	4249.162508	-926.826585
4836.670389	160.964036	4249.282578	-927.838483
4836.549461	146.797462	4249.402647	-932.897974
4836.428536	134.654683	4249.522715	-928.850381
4836.307611	122.511905	4249.642781	-925.814686
4836.186688	111.381025	4249.762847	-921.767093
4836.065767	106.321534	4249.882912	-917.719500
4835.944847	101.262043	4250.002975	-913.671906
4835.823929	97.214450	4250.123038	-911.648110
4835.703012	90.131163	4250.243099	-910.636211
4835.582097	76.976486	4250.363160	-909.624313
4835.461183	62.809911	4250.483219	-912.660008
4835.340271	45.607642	4250.603277	-916.707601
4835.219360	28.405372	4250.723334	-920.755195
4835.098451	17.274492	4250.843390	-925.814686
4834.977543	12.215001	4250.963445	-927.838483
4834.856637	10.191205	4251.083499	-930.874178
4834.735732	8.167408	4251.203552	-930.874178
4834.614828	10.191205	4251.323604	-926.826585
4834.493927	3.107917	4251.443655	-923.790890
4834.373026	-12.070556	4251.563705	-921.767093
4834.252127	-34.332317	4251.683753	-922.778991
4834.131230	-62.665467	4251.803801	-921.767093
4834.010334	-93.022413	4251.923847	-919.743296
4833.889440	-117.307970	4252.043893	-918.731398
4833.768547	-137.545935	4252.163937	-918.731398
4833.647655	-152.724408	4252.283980	-922.778991
4833.526765	-161.831492	4252.404023	-927.838483
4833.405877	-170.938576	4252.524064	-930.874178
4833.284990	-177.009966	4252.644104	-935.933669
4833.164104	-185.105151	4252.764143	-936.945568
4833.043221	-187.128948	4252.884181	-929.862280
4832.922338	-192.188439	4253.004218	-921.767093
4832.801457	-195.224134	4253.124254	-914.683805
4832.680577	-196.236032	4253.244289	-916.707601
4832.559699	-201.295523	4253.364322	-917.719500
4832.438823	-210.402607	4253.484355	-922.778991
4832.317948	-222.545386	4253.604387	-925.814686
4832.197074	-234.688165	4253.724417	-926.826585
4832.076202	-244.807147	4253.844447	-928.850381
4831.955331	-250.878536	4253.964475	-925.814686
4831.834462	-252.902333	4254.084503	-924.802788
4831.713594	-251.890435	4254.204529	-925.814686
4831.592728	-256.949926	4254.324555	-926.826585
4831.471864	-258.973722	4254.444579	-928.850381
4831.351000	-268.080807	4254.564602	-929.862280
4831.230138	-282.247382	4254.684624	-926.826585
4831.109278	-298.437754	4254.804645	-922.778991
4830.988419	-315.640024	4254.924665	-916.707601
4830.867562	-332.842294	4255.044684	-915.695703
4830.746706	-349.032666	4255.164702	-914.683805
4830.625852	-363.199241	4255.284719	-918.731398
4830.504999	-371.294427	4255.404735	-920.755195
4830.384147	-372.306325	4255.524750	-924.802788
4830.263297	-372.306325	4255.644764	-926.826585
4830.142449	-366.234936	4255.764777	-923.790890
4830.021602	-359.151648	4255.884788	-920.755195
4829.900756	-361.175445	4256.004799	-918.731398
4829.779912	-364.211139	4256.124808	-914.683805
4829.659070	-376.353918	4256.244817	-916.707601
4829.538228	-396.591883	4256.364825	-919.743296
4829.417389	-412.782255	4256.484831	-926.826585
4829.296551	-430.996424	4256.604836	-931.886076
4829.175714	-441.115407	4256.724841	-935.933669
4829.054879	-446.174898	4256.844844	-937.957466
4828.934045	-446.174898	4256.964846	-934.921771
4828.813212	-444.151101	4257.084848	-929.862280
4828.692382	-446.174898	4257.204848	-927.838483
4828.571552	-453.258186	4257.324847	-922.778991
4828.450724	-467.424761	4257.444845	-920.755195
4828.329898	-481.591337	4257.564842	-921.767093
4828.209073	-497.781709	4257.684838	-923.790890
4828.088249	-509.924488	4257.804833	-922.778991
4827.967427	-521.055369	4257.924827	-922.778991
4827.846606	-532.186250	4258.044820	-924.802788
4827.725787	-542.305233	4258.164812	-922.778991
4827.604970	-552.424216	4258.284803	-921.767093
4827.484153	-556.471809	4258.404793	-925.814686
4827.363339	-559.507503	4258.524781	-927.838483
4827.242525	-562.543198	4258.644769	-929.862280
4827.121713	-563.555097	4258.764756	-929.862280
4827.000903	-571.650283	4258.884742	-932.897974
4826.880094	-584.804960	4259.004726	-932.897974
4826.759287	-602.007231	4259.124710	-928.850381
4826.638480	-621.233298	4259.244693	-925.814686
4826.517676	-640.459365	4259.364674	-924.802788
4826.396873	-656.649738	4259.484655	-922.778991
4826.276071	-667.780619	4259.604634	-923.790890
4826.155271	-673.852009	4259.724613	-925.814686
4826.034472	-674.863907	4259.844590	-928.850381
4825.913675	-677.899602	4259.964566	-929.862280
4825.792879	-680.935297	4260.084542	-926.826585
4825.672085	-688.018585	4260.204516	-925.814686
4825.551292	-691.054280	4260.324489	-920.755195
4825.430500	-692.066178	4260.444462	-918.731398
4825.309710	-695.101873	4260.564433	-919.743296
4825.188922	-702.185161	4260.684403	-918.731398
4825.068135	-713.316042	4260.804372	-924.802788
4824.947349	-730.518313	4260.924341	-929.862280
4824.826565	-752.780076	4261.044308	-932.897974
4824.705782	-775.041838	4261.164274	-936.945568
4824.585000	-794.267906	4261.284239	-935.933669
4824.464221	-809.446380	4261.404203	-933.909873
4824.343442	-817.541567	4261.524166	-928.850381
4824.222665	-820.577262	4261.644128	-924.802788
4824.101890	-822.601058	4261.764089	-921.767093
4823.981116	-828.672448	4261.884049	-921.767093
4823.860343	-832.720041	4262.004008	-922.778991
4823.739572	-841.827126	4262.123966	-926.826585
4823.618802	-848.910414	4262.243923	-924.802788
4823.498034	-853.969906	4262.363879	-924.802788
4823.377267	-853.969906	4262.483834	-925.814686
4823.256501	-853.969906	4262.603788	-922.778991
4823.135737	-851.946109	4262.723741	-924.802788
4823.014975	-849.922313	4262.843693	-925.814686
4822.894214	-848.910414	4262.963644	-929.862280
4822.773454	-851.946109	4263.083594	-934.921771
4822.652696	-857.005601	4263.203542	-934.921771
4822.531939	-862.065092	4263.323490	-934.921771
4822.411184	-868.136482	4263.443437	-927.838483
4822.290430	-872.184075	4263.563383	-921.767093
4822.169677	-878.255465	4263.683328	-916.707601
4822.048926	-882.303059	4263.803271	-912.660008
4821.928176	-889.386347	4263.923214	-913.671906
4821.807428	-902.541025	4264.043156	-915.695703
4821.686682	-915.695703	4264.163097	-922.778991
4821.565936	-932.897974	4264.283036	-926.826585
4821.445192	-944.028856	4264.402975	-929.862280
4821.324450	-948.076449	4264.522913	-929.862280
4821.203709	-943.016958	4264.642849	-928.850381
4821.082969	-931.886076	4264.762785	-923.790890
4820.962231	-920.755195	4264.882720	-921.767093
4820.841495	-916.707601	4265.002653	-920.755195
4820.720759	-927.838483	4265.122586	-920.755195
4820.600025	-944.028856	4265.242518	-922.778991
4820.479293	-964.266823	4265.362448	-920.755195
4820.358562	-983.492891	4265.482378	-925.814686
4820.237833	-995.635671	4265.602307	-926.826585
4820.117104	-1001.707061	4265.722234	-925.814686
4819.996378	-1002.718959	4265.842161	-926.826585
4819.875652	-1000.695162	4265.962087	-923.790890
4819.754929	-999.683264	4266.082011	-923.790890
4819.634206	-995.635671	4266.201935	-920.755195
4819.513485	-992.599976	4266.321858	-918.731398
4819.392766	-984.504789	4266.441779	-917.719500
4819.272048	-979.445297	4266.561700	-920.755195
4819.151331	-980.457196	4266.681620	-923.790890
4819.030616	-982.480992	4266.801538	-927.838483
4818.909902	-987.540484	4266.921456	-929.862280
4818.789189	-995.635671	4267.041372	-927.838483
4818.668478	-1003.730857	4267.161288	-927.838483
4818.547769	-1013.849841	4267.281203	-921.767093
4818.427061	-1013.849841	4267.401116	-917.719500
4818.306354	-1013.849841	4267.521029	-918.731398
4818.185648	-1015.873637	4267.640941	-922.778991
4818.064945	-1017.897434	4267.760851	-928.850381
4817.944242	-1017.897434	4267.880761	-936.945568
4817.823541	-1021.945027	4268.000670	-936.945568
4817.702841	-1029.028316	4268.120577	-931.886076
4817.582143	-1037.123502	4268.240484	-926.826585
4817.461446	-1048.254384	4268.360390	-922.778991
4817.340751	-1055.337672	4268.480294	-920.755195
4817.220057	-1064.444758	4268.600198	-920.755195
4817.099364	-1065.456656	4268.720101	-925.814686
4816.978673	-1058.373367	4268.840003	-924.802788
4816.857983	-1049.266282	4268.959903	-927.838483
4816.737295	-1038.135401	4269.079803	-924.802788
4816.616608	-1031.052112	4269.199702	-921.767093
4816.495923	-1025.992621	4269.319600	-920.755195
4816.375239	-1024.980722	4269.439497	-918.731398
4816.254556	-1025.992621	4269.559392	-921.767093
4816.133875	-1030.040214	4269.679287	-922.778991
4816.013195	-1035.099706	4269.799181	-924.802788
4815.892516	-1042.182994	4269.919074	-926.826585
4815.771839	-1046.230587	4270.038966	-927.838483
4815.651164	-1054.325774	4270.158857	-929.862280
4815.530489	-1060.397164	4270.278747	-928.850381
4815.409817	-1066.468554	4270.398635	-928.850381
4815.289145	-1067.480453	4270.518523	-925.814686
4815.168475	-1067.480453	4270.638410	-925.814686
4815.047807	-1064.444758	4270.758296	-921.767093
4814.927139	-1060.397164	4270.878181	-920.755195
4814.806474	-1062.420961	4270.998065	-919.743296
4814.685809	-1064.444758	4271.117948	-919.743296
4814.565146	-1070.516148	4271.237830	-921.767093
4814.444485	-1076.587538	4271.357711	-924.802788
4814.323825	-1083.670826	4271.477592	-927.838483
4814.203166	-1086.706521	4271.597471	-925.814686
4814.082508	-1087.718419	4271.717349	-926.826585
4813.961853	-1084.682724	4271.837226	-927.838483
4813.841198	-1078.611334	4271.957102	-923.790890
4813.720545	-1074.563741	4272.076977	-917.719500
4813.599893	-1070.516148	4272.196852	-917.719500
4813.479243	-1064.444758	4272.316725	-914.683805
4813.358594	-1065.456656	4272.436597	-916.707601
4813.237946	-1059.385266	4272.556468	-919.743296
4813.117300	-1059.385266	4272.676339	-923.790890
4812.996655	-1055.337672	4272.796208	-927.838483
4812.876012	-1055.337672	4272.916077	-927.838483
4812.755370	-1056.349571	4273.035944	-927.838483
4812.634729	-1059.385266	4273.155810	-927.838483
4812.514090	-1066.468554	4273.275676	-927.838483
4812.393452	-1068.492351	4273.395540	-926.826585
4812.272816	-1070.516148	4273.515404	-926.826585
4812.152181	-1073.551843	4273.635267	-927.838483
4812.031547	-1073.551843	4273.755128	-924.802788
4811.910915	-1069.504249	4273.874989	-923.790890
4811.790284	-1067.480453	4273.994849	-921.767093
4811.669655	-1066.468554	4274.114707	-922.778991
4811.549027	-1069.504249	4274.234565	-924.802788
4811.428400	-1075.575639	4274.354422	-925.814686
4811.307775	-1083.670826	4274.474278	-927.838483
4811.187151	-1090.754114	4274.594132	-927.838483
4811.066529	-1096.825505	4274.713986	-927.838483
4810.945908	-1093.789810	4274.833839	-927.838483
4810.825288	-1091.766013	4274.953691	-926.826585
4810.704670	-1082.658928	4275.073542	-928.850381
4810.584053	-1070.516148	4275.193392	-931.886076
4810.463437	-1060.397164	4275.313241	-934.921771
4810.342823	-1053.313876	4275.433089	-931.886076
4810.222210	-1049.266282	4275.552937	-931.886076
4810.101599	-1050.278181	4275.672783	-928.850381
4809.980989	-1060.397164	4275.792628	-926.826585
4809.860380	-1073.551843	4275.912472	-924.802788
4809.739773	-1086.706521	4276.032316	-922.778991
4809.619167	-1100.873098	4276.152158	-921.767093
4809.498563	-1108.968285	4276.271999	-922.778991
4809.377960	-1112.003980	4276.391840	-923.790890
4809.257358	-1106.944488	4276.511679	-924.802788
4809.136758	-1102.896895	4276.631518	-923.790890
4809.016159	-1094.801708	4276.751355	-924.802788
4808.895561	-1089.742216	4276.871192	-926.826585
4808.774965	-1083.670826	4276.991028	-922.778991
4808.654370	-1084.682724	4277.110862	-923.790890
4808.533777	-1091.766013	4277.230696	-920.755195
4808.413185	-1100.873098	4277.350529	-920.755195
4808.292594	-1106.944488	4277.470361	-921.767093
4808.172005	-1116.051573	4277.590192	-922.778991
4808.051417	-1126.170557	4277.710022	-924.802788
4807.930830	-1127.182455	4277.829851	-926.826585
4807.810245	-1130.218150	4277.949679	-927.838483
4807.689661	-1125.158658	4278.069506	-924.802788
4807.569079	-1120.099167	4278.189332	-922.778991
4807.448498	-1115.039675	4278.309157	-920.755195
4807.327918	-1117.063471	4278.428981	-919.743296
4807.207340	-1121.111065	4278.548805	-921.767093
4807.086763	-1129.206252	4278.668627	-921.767093
4806.966187	-1143.372829	4278.788448	-925.814686
4806.845613	-1155.515609	4278.908269	-931.886076
4806.725040	-1164.622694	4279.028088	-936.945568
4806.604469	-1170.694084	4279.147907	-934.921771
4806.483899	-1173.729779	4279.267725	-933.909873
4806.363330	-1170.694084	4279.387541	-928.850381
4806.242763	-1168.670288	4279.507357	-925.814686
4806.122197	-1164.622694	4279.627172	-916.707601
4806.001632	-1162.598897	4279.746986	-914.683805
4805.881069	-1162.598897	4279.866799	-911.648110
4805.760507	-1163.610796	4279.986611	-914.683805
4805.639947	-1165.634592	4280.106422	-920.755195
4805.519388	-1167.658389	4280.226232	-925.814686
4805.398830	-1168.670288	4280.346041	-929.862280
4805.278273	-1176.765474	4280.465849	-932.897974
4805.157718	-1182.836865	4280.585657	-932.897974
4805.037165	-1190.932051	4280.705463	-934.921771
4804.916612	-1195.991543	4280.825268	-929.862280
4804.796061	-1201.051035	4280.945073	-926.826585
4804.675512	-1202.062933	4281.064876	-923.790890
4804.554963	-1204.086730	4281.184679	-922.778991
4804.434417	-1205.098629	4281.304481	-924.802788
4804.313871	-1208.134324	4281.424281	-924.802788
4804.193327	-1213.193815	4281.544081	-923.790890
4804.072784	-1218.253307	4281.663880	-921.767093
4803.952243	-1223.312799	4281.783678	-922.778991
4803.831702	-1224.324697	4281.903475	-916.707601
4803.711164	-1222.300901	4282.023271	-915.695703
4803.590626	-1220.277104	4282.143066	-915.695703
4803.470090	-1220.277104	4282.262860	-916.707601
4803.349556	-1220.277104	4282.382654	-916.707601
4803.229022	-1226.348494	4282.502446	-920.755195
4803.108490	-1230.396088	4282.622237	-925.814686
4802.987960	-1234.443681	4282.742028	-926.826585
4802.867430	-1241.526970	4282.861817	-926.826585
4802.746903	-1244.562665	4282.981606	-926.826585
4802.626376	-1247.598360	4283.101394	-924.802788
4802.505851	-1256.705445	4283.221181	-924.802788
4802.385327	-1265.812531	4283.340966	-924.802788
4802.264804	-1277.955311	4283.460751	-924.802788
4802.144283	-1288.074295	4283.580535	-928.850381
4802.023764	-1289.086193	4283.700318	-929.862280
4801.903245	-1291.109990	4283.820101	-929.862280
4801.782728	-1284.026701	4283.939882	-925.814686
4801.662212	-1277.955311	4284.059662	-922.778991
4801.541698	-1272.895819	4284.179441	-921.767093
4801.421185	-1270.872022	4284.299220	-917.719500
4801.300673	-1273.907718	4284.418997	-915.695703
4801.180163	-1280.991006	4284.538774	-915.695703
4801.059654	-1289.086193	4284.658550	-918.731398
4800.939146	-1294.145685	4284.778325	-919.743296
4800.818640	-1298.193279	4284.898098	-926.826585
4800.698135	-1298.193279	4285.017871	-928.850381
4800.577631	-1293.133787	4285.137643	-932.897974
4800.457129	-1287.062396	4285.257415	-935.933669
4800.336628	-1283.014803	4285.377185	-933.909873
4800.216128	-1280.991006	4285.496954	-930.874178
4800.095630	-1287.062396	4285.616722	-926.826585
4799.975133	-1297.181380	4285.736490	-924.802788
4799.854637	-1308.312262	4285.856256	-924.802788
4799.734143	-1318.431246	4285.976022	-923.790890
4799.613650	-1325.514535	4286.095787	-923.790890
4799.493159	-1325.514535	4286.215550	-923.790890
4799.372668	-1319.443145	4286.335313	-921.767093
4799.252179	-1306.288466	4286.455075	-921.767093
4799.131692	-1290.098092	4286.574836	-918.731398
4799.011206	-1272.895819	4286.694596	-917.719500
4798.890721	-1256.705445	4286.814356	-915.695703
4798.770237	-1245.574563	4286.934114	-916.707601
4798.649755	-1237.479376	4287.053871	-916.707601
4798.529274	-1233.431783	4287.173628	-921.767093
4798.408794	-1229.384189	4287.293383	-920.755195
4798.288316	-1226.348494	4287.413138	-922.778991
4798.167839	-1224.324697	4287.532892	-923.790890
4798.047364	-1219.265206	4287.652645	-923.790890
4797.926889	-1217.241409	4287.772397	-925.814686
4797.806417	-1214.205714	4287.892148	-923.790890
4797.685945	-1211.170019	4288.011898	-924.802788
4797.565475	-1210.158120	4288.131647	-924.802788
4797.445006	-1209.146222	4288.251395	-924.802788
4797.324538	-1203.074832	4288.371143	-928.850381
4797.204072	-1198.015340	4288.490889	-929.862280
4797.083607	-1193.967747	4288.610635	-931.886076
4796.963143	-1192.955848	4288.730380	-932.897974
4796.842681	-1192.955848	4288.850124	-932.897974
4796.722220	-1195.991543	4288.969867	-932.897974
4796.601761	-1201.051035	4289.089609	-930.874178
4796.481302	-1205.098629	4289.209350	-928.850381
4796.360845	-1209.146222	4289.329090	-925.814686
4796.240390	-1213.193815	4289.448829	-926.826585
4796.119935	-1213.193815	4289.568568	-926.826585
4795.999482	-1213.193815	4289.688305	-928.850381
4795.879031	-1212.181917	4289.808042	-929.862280
4795.758580	-1208.134324	4289.927777	-934.921771
4795.638131	-1207.122425	4290.047512	-933.909873
4795.517684	-1201.051035	4290.167246	-932.897974
4795.397237	-1197.003442	4290.286979	-930.874178
4795.276792	-1193.967747	4290.406711	-925.814686
4795.156348	-1190.932051	4290.526443	-924.802788
4795.035906	-1190.932051	4290.646173	-922.778991
4794.915465	-1186.884458	4290.765902	-923.790890
4794.795025	-1183.848763	4290.885631	-921.767093
4794.674586	-1185.872560	4291.005359	-920.755195
4794.554149	-1182.836865	4291.125086	-919.743296
4794.433713	-1182.836865	4291.244811	-919.743296
4794.313279	-1183.848763	4291.364536	-920.755195
4794.192846	-1185.872560	4291.484261	-922.778991
4794.072414	-1187.896356	4291.603984	-924.802788
4793.951983	-1190.932051	4291.723706	-924.802788
4793.831554	-1192.955848	4291.843428	-923.790890
4793.711126	-1200.039137	4291.963148	-920.755195
4793.590699	-1204.086730	4292.082868	-917.719500
4793.470274	-1210.158120	4292.202587	-914.683805
