scanstart [nm]: 4875.000000
slope [nm/V]: 42.182656
k [N/m]: 0.074466
velocity [nm/s]: 400.000000
6:26:01 PM

4842.678517	508.045112	4244.610942	-767.958550
4842.557714	509.057011	4244.730904	-768.970448
4842.436912	509.057011	4244.850865	-768.970448
4842.316112	505.009418	4244.970826	-770.994245
4842.195312	503.997520	4245.090785	-774.029940
4842.074513	499.949927	4245.210744	-775.041838
4841.953716	495.902334	4245.330702	-776.053736
4841.832919	493.878538	4245.450658	-777.065635
4841.712123	489.830945	4245.570614	-776.053736
4841.591329	490.842844	4245.690569	-778.077533
4841.470535	488.819047	4245.810523	-776.053736
4841.349743	491.854742	4245.930476	-775.041838
4841.228951	490.842844	4246.050428	-774.029940
4841.108161	491.854742	4246.170379	-773.018041
4840.987371	491.854742	4246.290329	-772.006143
4840.866582	488.819047	4246.410278	-769.982347
4840.745795	488.819047	4246.530226	-766.946652
4840.625008	483.759556	4246.650173	-767.958550
4840.504223	476.676269	4246.770120	-766.946652
4840.383438	470.604880	4246.890065	-768.970448
4840.262655	462.509695	4247.010010	-768.970448
4840.141873	451.378815	4247.129953	-770.994245
4840.021091	442.271731	4247.249896	-770.994245
4839.900311	431.140851	4247.369838	-770.994245
4839.779531	417.986175	4247.489779	-774.029940
4839.658753	405.843397	4247.609718	-772.006143
4839.537975	393.700619	4247.729657	-775.041838
4839.417199	378.522146	4247.849595	-775.041838
4839.296424	364.355572	4247.969532	-775.041838
4839.175649	350.188997	4248.089468	-774.029940
4839.054876	336.022423	4248.209404	-774.029940
4838.934103	323.879645	4248.329338	-772.006143
4838.813332	312.748765	4248.449271	-770.994245
4838.692562	303.641681	4248.569204	-770.994245
4838.571792	296.558394	4248.689135	-772.006143
4838.451024	288.463208	4248.809066	-770.994245
4838.330257	280.368023	4248.928995	-770.994245
4838.209490	271.260939	4249.048924	-770.994245
4838.088725	265.189550	4249.168852	-770.994245
4837.967961	260.130059	4249.288779	-769.982347
4837.847197	248.999179	4249.408705	-769.982347
4837.726435	242.927790	4249.528630	-767.958550
4837.605674	232.808808	4249.648554	-768.970448
4837.484913	223.701724	4249.768477	-767.958550
4837.364154	213.582742	4249.888399	-766.946652
4837.243396	205.487557	4250.008321	-766.946652
4837.122639	196.380473	4250.128241	-765.934753
4837.001882	184.237695	4250.248160	-765.934753
4836.881127	175.130611	4250.368079	-763.910957
4836.760373	163.999731	4250.487997	-764.922855
4836.639619	153.880749	4250.607913	-765.934753
4836.518867	143.761767	4250.727829	-762.899058
4836.398116	133.642785	4250.847744	-762.899058
4836.277366	126.559498	4250.967658	-764.922855
4836.156616	120.488109	4251.087571	-766.946652
4836.035868	116.440516	4251.207483	-765.934753
4835.915121	111.381025	4251.327394	-766.946652
4835.794374	106.321534	4251.447305	-766.946652
4835.673629	106.321534	4251.567214	-767.958550
4835.552885	102.273941	4251.687122	-767.958550
4835.432142	97.214450	4251.807030	-770.994245
4835.311399	90.131163	4251.926937	-768.970448
4835.190658	80.012181	4252.046842	-769.982347
4835.069918	68.881300	4252.166747	-767.958550
4834.949179	54.714726	4252.286651	-770.994245
4834.828440	38.524354	4252.406554	-769.982347
4834.707703	26.381576	4252.526456	-766.946652
4834.586967	11.203103	4252.646357	-767.958550
4834.466231	-1.951574	4252.766257	-767.958550
4834.345497	-11.058658	4252.886157	-766.946652
4834.224764	-18.141945	4253.006055	-765.934753
4834.104032	-26.237131	4253.125953	-763.910957
4833.983300	-33.320419	4253.245849	-763.910957
4833.862570	-39.391808	4253.365745	-761.887160
4833.741841	-46.475095	4253.485640	-761.887160
4833.621112	-55.582179	4253.605534	-762.899058
4833.500385	-67.724958	4253.725427	-761.887160
4833.379659	-82.903431	4253.845319	-760.875262
4833.258933	-96.058108	4253.965210	-759.863364
4833.138209	-113.260378	4254.085100	-760.875262
4833.017486	-129.450749	4254.204989	-762.899058
4832.896763	-144.629222	4254.324878	-761.887160
4832.776042	-157.783899	4254.444765	-763.910957
4832.655322	-171.950475	4254.564652	-763.910957
4832.534602	-183.081355	4254.684538	-763.910957
4832.413884	-192.188439	4254.804422	-765.934753
4832.293167	-198.259828	4254.924306	-765.934753
4832.172450	-204.331218	4255.044189	-763.910957
4832.051735	-209.390709	4255.164071	-764.922855
4831.931020	-214.450200	4255.283953	-764.922855
4831.810307	-218.497793	4255.403833	-762.899058
4831.689595	-222.545386	4255.523712	-762.899058
4831.568883	-227.604877	4255.643591	-763.910957
4831.448173	-232.664368	4255.763468	-763.910957
4831.327463	-239.747656	4255.883345	-762.899058
4831.206755	-247.842842	4256.003221	-765.934753
4831.086048	-255.938028	4256.123096	-765.934753
4830.965341	-267.068908	4256.242970	-764.922855
4830.844636	-278.199789	4256.362843	-770.994245
4830.723931	-288.318771	4256.482715	-770.994245
4830.603228	-301.473448	4256.602586	-770.994245
4830.482525	-312.604329	4256.722457	-774.029940
4830.361824	-322.723311	4256.842326	-774.029940
4830.241123	-332.842294	4256.962195	-772.006143
4830.120424	-342.961276	4257.082063	-772.006143
4829.999725	-349.032666	4257.201930	-769.982347
4829.879027	-355.104055	4257.321796	-769.982347
4829.758331	-359.151648	4257.441661	-768.970448
4829.637635	-366.234936	4257.561525	-765.934753
4829.516941	-368.258732	4257.681388	-763.910957
4829.396247	-370.282529	4257.801250	-763.910957
4829.275554	-377.365817	4257.921112	-761.887160
4829.154863	-380.401511	4258.040972	-763.910957
4829.034172	-385.461003	4258.160832	-761.887160
4828.913482	-391.532392	4258.280691	-763.910957
4828.792794	-398.615680	4258.400549	-763.910957
4828.672106	-406.710866	4258.520406	-763.910957
4828.551419	-418.853645	4258.640262	-764.922855
4828.430734	-429.984526	4258.760117	-766.946652
4828.310049	-443.139203	4258.879971	-767.958550
4828.189365	-458.317677	4258.999825	-766.946652
4828.068682	-472.484253	4259.119678	-766.946652
4827.948001	-490.698421	4259.239529	-768.970448
4827.827320	-505.876895	4259.359380	-768.970448
4827.706640	-524.091064	4259.479230	-768.970448
4827.585961	-538.257640	4259.599079	-769.982347
4827.465283	-554.448012	4259.718927	-766.946652
4827.344606	-564.566995	4259.838774	-768.970448
4827.223931	-575.697876	4259.958621	-767.958550
4827.103256	-582.781164	4260.078466	-766.946652
4826.982582	-590.876350	4260.198311	-765.934753
4826.861909	-594.923943	4260.318155	-763.910957
4826.741237	-598.971536	4260.437997	-759.863364
4826.620566	-602.007231	4260.557839	-758.851465
4826.499896	-607.066722	4260.677680	-757.839567
4826.379227	-610.102417	4260.797521	-755.815770
4826.258559	-616.173807	4260.917360	-758.851465
4826.137892	-622.245196	4261.037198	-756.827669
4826.017226	-625.280891	4261.157036	-755.815770
4825.896560	-632.364179	4261.276873	-756.827669
4825.775896	-637.423671	4261.396708	-758.851465
4825.655233	-642.483162	4261.516543	-758.851465
4825.534571	-647.542653	4261.636377	-760.875262
4825.413910	-652.602145	4261.756211	-762.899058
4825.293250	-657.661636	4261.876043	-764.922855
4825.172590	-660.697331	4261.995874	-764.922855
4825.051932	-665.756823	4262.115705	-766.946652
4824.931275	-669.804416	4262.235534	-766.946652
4824.810619	-674.863907	4262.355363	-768.970448
4824.689963	-678.911500	4262.475191	-767.958550
4824.569309	-685.994788	4262.595018	-767.958550
4824.448656	-691.054280	4262.714844	-766.946652
4824.328003	-695.101873	4262.834670	-764.922855
4824.207352	-699.149466	4262.954494	-765.934753
4824.086701	-700.161364	4263.074318	-763.910957
4823.966052	-704.208957	4263.194140	-763.910957
4823.845403	-706.232754	4263.313962	-763.910957
4823.724756	-708.256551	4263.433783	-764.922855
4823.604109	-709.268449	4263.553603	-763.910957
4823.483464	-712.304144	4263.673422	-765.934753
4823.362819	-714.327940	4263.793241	-764.922855
4823.242175	-716.351737	4263.913058	-764.922855
4823.121533	-720.399330	4264.032875	-764.922855
4823.000891	-725.458822	4264.152690	-765.934753
4822.880250	-728.494516	4264.272505	-765.934753
4822.759611	-730.518313	4264.392319	-763.910957
4822.638972	-736.589703	4264.512132	-761.887160
4822.518334	-740.637296	4264.631945	-762.899058
4822.397697	-744.684889	4264.751756	-764.922855
4822.277062	-743.672991	4264.871566	-763.910957
4822.156427	-748.732482	4264.991376	-763.910957
4822.035793	-753.791974	4265.111185	-765.934753
4821.915160	-759.863364	4265.230993	-764.922855
4821.794528	-766.946652	4265.350800	-765.934753
4821.673897	-775.041838	4265.470606	-765.934753
4821.553267	-785.160821	4265.590411	-765.934753
4821.432638	-798.315499	4265.710216	-765.934753
4821.312010	-810.458279	4265.830019	-766.946652
4821.191383	-822.601058	4265.949822	-766.946652
4821.070756	-832.720041	4266.069624	-765.934753
4820.950131	-839.803330	4266.189425	-766.946652
4820.829507	-847.898516	4266.309225	-767.958550
4820.708884	-850.934211	4266.429025	-765.934753
4820.588262	-850.934211	4266.548823	-764.922855
4820.467640	-849.922313	4266.668621	-764.922855
4820.347020	-848.910414	4266.788417	-767.958550
4820.226401	-846.886618	4266.908213	-766.946652
4820.105782	-846.886618	4267.028008	-765.934753
4819.985165	-847.898516	4267.147802	-766.946652
4819.864548	-846.886618	4267.267596	-767.958550
4819.743933	-850.934211	4267.387388	-768.970448
4819.623318	-855.993702	4267.507180	-770.994245
4819.502705	-861.053194	4267.626970	-770.994245
4819.382092	-866.112686	4267.746760	-772.006143
4819.261480	-873.195974	4267.866549	-769.982347
4819.140870	-878.255465	4267.986338	-769.982347
4819.020260	-882.303059	4268.106125	-769.982347
4818.899651	-885.338754	4268.225911	-767.958550
4818.779044	-887.362550	4268.345697	-766.946652
4818.658437	-887.362550	4268.465482	-763.910957
4818.537831	-885.338754	4268.585266	-761.887160
4818.417226	-884.326855	4268.705049	-762.899058
4818.296622	-879.267364	4268.824831	-761.887160
4818.176019	-875.219770	4268.944612	-760.875262
4818.055417	-871.172177	4269.064393	-761.887160
4817.934816	-867.124584	4269.184172	-764.922855
4817.814216	-864.088889	4269.303951	-766.946652
4817.693617	-862.065092	4269.423729	-766.946652
4817.573019	-864.088889	4269.543506	-769.982347
4817.452422	-867.124584	4269.663283	-770.994245
4817.331825	-871.172177	4269.783058	-770.994245
4817.211230	-880.279262	4269.902833	-770.994245
4817.090636	-887.362550	4270.022606	-768.970448
4816.970042	-893.433940	4270.142379	-767.958550
4816.849450	-900.517228	4270.262151	-767.958550
4816.728859	-905.576720	4270.381922	-767.958550
4816.608268	-909.624313	4270.501693	-765.934753
4816.487679	-913.671906	4270.621462	-764.922855
4816.367090	-916.707601	4270.741231	-767.958550
4816.246502	-912.660008	4270.860999	-768.970448
4816.125916	-912.660008	4270.980766	-766.946652
4816.005330	-907.600516	4271.100532	-770.994245
4815.884745	-903.552923	4271.220297	-770.994245
4815.764162	-900.517228	4271.340062	-774.029940
4815.643579	-898.493432	4271.459825	-773.018041
4815.522997	-896.469635	4271.579588	-774.029940
4815.402416	-894.445838	4271.699350	-774.029940
4815.281836	-893.433940	4271.819111	-774.029940
4815.161257	-894.445838	4271.938871	-772.006143
4815.040679	-896.469635	4272.058631	-772.006143
4814.920102	-897.481533	4272.178389	-766.946652
4814.799526	-901.529127	4272.298147	-764.922855
4814.678951	-905.576720	4272.417904	-766.946652
4814.558377	-910.636211	4272.537660	-764.922855
4814.437803	-915.695703	4272.657415	-762.899058
4814.317231	-920.755195	4272.777170	-762.899058
4814.196660	-927.838483	4272.896923	-765.934753
4814.076089	-930.874178	4273.016676	-767.958550
4813.955520	-935.933669	4273.136428	-768.970448
4813.834952	-942.005059	4273.256179	-767.958550
4813.714384	-944.028856	4273.375929	-773.018041
4813.593817	-943.016958	4273.495679	-770.994245
4813.473252	-944.028856	4273.615427	-769.982347
4813.352687	-945.040754	4273.735175	-772.006143
4813.232123	-942.005059	4273.854922	-770.994245
4813.111561	-938.969364	4273.974668	-769.982347
4812.990999	-933.909873	4274.094413	-765.934753
4812.870438	-930.874178	4274.214157	-766.946652
4812.749878	-930.874178	4274.333901	-764.922855
4812.629319	-927.838483	4274.453644	-763.910957
4812.508761	-928.850381	4274.573386	-767.958550
4812.388204	-929.862280	4274.693127	-764.922855
4812.267648	-927.838483	4274.812867	-766.946652
4812.147093	-925.814686	4274.932606	-769.982347
4812.026539	-921.767093	4275.052345	-768.970448
4811.905985	-917.719500	4275.172083	-769.982347
4811.785433	-913.671906	4275.291820	-768.970448
4811.664882	-906.588618	4275.411556	-768.970448
4811.544331	-898.493432	4275.531291	-769.982347
4811.423782	-894.445838	4275.651026	-773.018041
4811.303233	-885.338754	4275.770759	-770.994245
4811.182686	-882.303059	4275.890492	-769.982347
4811.062139	-879.267364	4276.010224	-769.982347
4810.941594	-877.243567	4276.129955	-768.970448
4810.821049	-877.243567	4276.249686	-768.970448
4810.700505	-881.291160	4276.369415	-765.934753
4810.579962	-882.303059	4276.489144	-766.946652
4810.459420	-885.338754	4276.608872	-765.934753
4810.338879	-886.350652	4276.728599	-764.922855
4810.218339	-888.374448	4276.848325	-766.946652
4810.097800	-886.350652	4276.968051	-766.946652
4809.977262	-883.314957	4277.087775	-767.958550
4809.856725	-876.231669	4277.207499	-767.958550
4809.736189	-868.136482	4277.327222	-768.970448
4809.615654	-861.053194	4277.446944	-768.970448
4809.495119	-850.934211	4277.566666	-767.958550
4809.374586	-843.850923	4277.686386	-767.958550
4809.254054	-837.779533	4277.806106	-767.958550
4809.133522	-831.708143	4277.925825	-768.970448
4809.012991	-830.696245	4278.045543	-768.970448
4808.892462	-829.684346	4278.165260	-767.958550
4808.771933	-831.708143	4278.284977	-767.958550
4808.651405	-834.743838	4278.404692	-767.958550
4808.530879	-837.779533	4278.524407	-767.958550
4808.410353	-840.815228	4278.644121	-766.946652
4808.289828	-845.874719	4278.763835	-768.970448
4808.169304	-849.922313	4278.883547	-768.970448
4808.048781	-852.958008	4279.003259	-770.994245
4807.928259	-855.993702	4279.122969	-770.994245
4807.807738	-855.993702	4279.242679	-770.994245
4807.687218	-858.017499	4279.362388	-773.018041
4807.566698	-857.005601	4279.482097	-776.053736
4807.446180	-853.969906	4279.601804	-775.041838
4807.325663	-853.969906	4279.721511	-776.053736
4807.205146	-849.922313	4279.841217	-776.053736
4807.084631	-847.898516	4279.960922	-778.077533
4806.964116	-842.839024	4280.080626	-776.053736
4806.843603	-839.803330	4280.200330	-775.041838
4806.723090	-836.767635	4280.320033	-777.065635
4806.602578	-833.731940	4280.439734	-772.006143
4806.482067	-831.708143	4280.559435	-775.041838
4806.361557	-831.708143	4280.679136	-773.018041
4806.241049	-830.696245	4280.798835	-773.018041
4806.120541	-830.696245	4280.918534	-772.006143
4806.000034	-831.708143	4281.038232	-770.994245
4805.879527	-830.696245	4281.157929	-772.006143
4805.759022	-831.708143	4281.277625	-772.006143
4805.638518	-832.720041	4281.397320	-769.982347
4805.518015	-834.743838	4281.517015	-769.982347
4805.397512	-836.767635	4281.636709	-768.970448
4805.277011	-837.779533	4281.756402	-766.946652
4805.156510	-837.779533	4281.876094	-768.970448
4805.036011	-841.827126	4281.995786	-770.994245
4804.915512	-841.827126	4282.115476	-769.982347
4804.795014	-844.862821	4282.235166	-770.994245
4804.674518	-844.862821	4282.354855	-769.982347
4804.554022	-846.886618	4282.474543	-769.982347
4804.433527	-848.910414	4282.594231	-770.994245
4804.313033	-851.946109	4282.713918	-769.982347
4804.192540	-855.993702	4282.833603	-772.006143
4804.072048	-858.017499	4282.953288	-773.018041
4803.951557	-859.029397	4283.072973	-770.994245
4803.831066	-862.065092	4283.192656	-770.994245
4803.710577	-866.112686	4283.312339	-772.006143
4803.590089	-866.112686	4283.432021	-772.006143
4803.469601	-869.148380	4283.551702	-770.994245
4803.349115	-869.148380	4283.671382	-772.006143
4803.228629	-871.172177	4283.791062	-774.029940
4803.108144	-872.184075	4283.910740	-773.018041
4802.987661	-870.160279	4284.030418	-774.029940
4802.867178	-869.148380	4284.150095	-775.041838
4802.746696	-867.124584	4284.269772	-775.041838
4802.626215	-869.148380	4284.389447	-776.053736
4802.505735	-867.124584	4284.509122	-772.006143
4802.385256	-867.124584	4284.628796	-774.029940
4802.264778	-866.112686	4284.748469	-774.029940
4802.144301	-868.136482	4284.868141	-772.006143
4802.023824	-864.088889	4284.987813	-769.982347
4801.903349	-865.100787	4285.107484	-768.970448
4801.782875	-864.088889	4285.227154	-766.946652
4801.662401	-862.065092	4285.346823	-766.946652
4801.541929	-862.065092	4285.466491	-762.899058
4801.421457	-862.065092	4285.586159	-764.922855
4801.300986	-859.029397	4285.705826	-764.922855
4801.180516	-860.041296	4285.825492	-764.922855
4801.060047	-860.041296	4285.945157	-764.922855
4800.939580	-855.993702	4286.064822	-766.946652
4800.819112	-853.969906	4286.184486	-769.982347
4800.698646	-853.969906	4286.304148	-769.982347
4800.578181	-851.946109	4286.423811	-770.994245
4800.457717	-849.922313	4286.543472	-770.994245
4800.337254	-846.886618	4286.663133	-774.029940
4800.216791	-845.874719	4286.782792	-774.029940
4800.096330	-841.827126	4286.902451	-776.053736
4799.975869	-836.767635	4287.022110	-776.053736
4799.855410	-837.779533	4287.141767	-777.065635
4799.734951	-834.743838	4287.261424	-776.053736
4799.614493	-833.731940	4287.381080	-776.053736
4799.494036	-831.708143	4287.500735	-776.053736
4799.373580	-830.696245	4287.620389	-774.029940
4799.253125	-831.708143	4287.740043	-774.029940
4799.132671	-832.720041	4287.859696	-773.018041
4799.012218	-832.720041	4287.979348	-770.994245
4798.891766	-832.720041	4288.098999	-768.970448
4798.771314	-835.755736	4288.218649	-769.982347
4798.650864	-835.755736	4288.338299	-768.970448
4798.530414	-839.803330	4288.457948	-766.946652
4798.409966	-838.791431	4288.577596	-764.922855
4798.289518	-838.791431	4288.697243	-765.934753
4798.169072	-839.803330	4288.816890	-764.922855
4798.048626	-840.815228	4288.936536	-764.922855
4797.928181	-839.803330	4289.056181	-764.922855
4797.807737	-839.803330	4289.175825	-765.934753
4797.687294	-840.815228	4289.295468	-768.970448
4797.566852	-842.839024	4289.415111	-769.982347
4797.446410	-843.850923	4289.534753	-772.006143
4797.325970	-841.827126	4289.654394	-772.006143
4797.205531	-840.815228	4289.774035	-774.029940
4797.085092	-837.779533	4289.893674	-773.018041
4796.964655	-835.755736	4290.013313	-773.018041
4796.844218	-833.731940	4290.132951	-775.041838
4796.723782	-830.696245	4290.252589	-774.029940
4796.603348	-829.684346	4290.372225	-774.029940
4796.482914	-825.636753	4290.491861	-774.029940
4796.362481	-824.624855	4290.611496	-772.006143
4796.242049	-822.601058	4290.731130	-772.006143
4796.121618	-821.589160	4290.850764	-770.994245
4796.001187	-822.601058	4290.970396	-769.982347
4795.880758	-819.565363	4291.090028	-770.994245
4795.760330	-822.601058	4291.209660	-768.970448
4795.639902	-820.577262	4291.329290	-767.958550
4795.519476	-821.589160	4291.448920	-766.946652
4795.399050	-821.589160	4291.568549	-766.946652
4795.278625	-821.589160	4291.688177	-766.946652
4795.158201	-822.601058	4291.807804	-765.934753
4795.037778	-824.624855	4291.927431	-764.922855
4794.917356	-825.636753	4292.047057	-764.922855
4794.796935	-826.648652	4292.166682	-764.922855
4794.676515	-826.648652	4292.286306	-765.934753
4794.556096	-827.660550	4292.405930	-767.958550
4794.435678	-826.648652	4292.525552	-769.982347
4794.315260	-829.684346	4292.645174	-770.994245
4794.194844	-827.660550	4292.764796	-773.018041
4794.074428	-828.672448	4292.884416	-774.029940
4793.954013	-827.660550	4293.004036	-777.065635
4793.833600	-827.660550	4293.123655	-776.053736
4793.713187	-825.636753	4293.243273	-777.065635
