scanstart [nm]: 4655.000000
slope [nm/V]: 42.182656
k [N/m]: 0.074466
velocity [nm/s]: 200.000000
6:01:51 PM

4626.526202	1120.243493	4129.374780	323.879645
4626.426610	1120.243493	4129.474634	323.879645
4626.327018	1119.231595	4129.574488	324.891543
4626.227427	1118.219697	4129.674341	323.879645
4626.127836	1115.184003	4129.774194	322.867746
4626.028245	1111.136410	4129.874046	323.879645
4625.928655	1105.065021	4129.973898	323.879645
4625.829065	1101.017429	4130.073750	322.867746
4625.729475	1097.981734	4130.173600	321.855848
4625.629886	1093.934142	4130.273451	322.867746
4625.530297	1087.862753	4130.373300	324.891543
4625.430708	1083.815161	4130.473150	322.867746
4625.331120	1080.779466	4130.572998	322.867746
4625.231532	1075.719975	4130.672847	321.855848
4625.131944	1070.660485	4130.772695	323.879645
4625.032356	1065.600994	4130.872542	321.855848
4624.932769	1063.577198	4130.972388	318.820154
4624.833182	1058.517707	4131.072235	319.832052
4624.733596	1054.470114	4131.172080	318.820154
4624.634009	1050.422522	4131.271926	321.855848
4624.534424	1046.374929	4131.371770	320.843950
4624.434838	1042.327337	4131.471615	320.843950
4624.335253	1038.279744	4131.571458	322.867746
4624.235668	1032.208355	4131.671301	321.855848
4624.136083	1028.160763	4131.771144	324.891543
4624.036499	1023.101272	4131.870986	324.891543
4623.936915	1018.041781	4131.970828	325.903441
4623.837331	1016.017985	4132.070669	328.939136
4623.737748	1009.946596	4132.170510	326.915339
4623.638165	1004.887106	4132.270350	324.891543
4623.538582	1000.839513	4132.370189	325.903441
4623.438999	996.791920	4132.470029	326.915339
4623.339417	991.732430	4132.569867	325.903441
4623.239835	984.649143	4132.669705	325.903441
4623.140254	978.577754	4132.769543	325.903441
4623.040673	970.482569	4132.869380	325.903441
4622.941092	961.375486	4132.969217	325.903441
4622.841511	950.244606	4133.069053	326.915339
4622.741931	939.113726	4133.168888	324.891543
4622.642351	930.006643	4133.268723	324.891543
4622.542771	917.863865	4133.368558	323.879645
4622.443192	904.709189	4133.468392	324.891543
4622.343613	892.566412	4133.568226	326.915339
4622.244034	881.435532	4133.668059	323.879645
4622.144456	868.280856	4133.767891	323.879645
4622.044878	860.185671	4133.867723	322.867746
4621.945300	849.054791	4133.967555	325.903441
4621.845722	837.923912	4134.067386	323.879645
4621.746145	830.840625	4134.167217	322.867746
4621.646568	823.757338	4134.267047	324.891543
4621.546992	818.697847	4134.366876	324.891543
4621.447416	815.662152	4134.466705	324.891543
4621.347840	812.626458	4134.566534	324.891543
4621.248264	807.566967	4134.666362	325.903441
4621.148689	805.543171	4134.766189	325.903441
4621.049114	801.495578	4134.866017	326.915339
4620.949539	796.436088	4134.965843	324.891543
4620.849965	792.388495	4135.065669	325.903441
4620.750391	787.329004	4135.165495	323.879645
4620.650817	779.233819	4135.265320	324.891543
4620.551244	770.126736	4135.365144	323.879645
4620.451671	763.043449	4135.464968	324.891543
4620.352098	753.936365	4135.564792	323.879645
4620.252525	746.853078	4135.664615	323.879645
4620.152953	737.745995	4135.764438	324.891543
4620.053381	727.627013	4135.864260	323.879645
4619.953810	722.567522	4135.964081	323.879645
4619.854238	714.472337	4136.063902	322.867746
4619.754667	708.400948	4136.163723	323.879645
4619.655097	700.305763	4136.263543	323.879645
4619.555526	694.234374	4136.363363	321.855848
4619.455956	687.151087	4136.463182	324.891543
4619.356387	678.044004	4136.563000	322.867746
4619.256817	671.972615	4136.662818	321.855848
4619.157248	661.853633	4136.762636	323.879645
4619.057679	653.758448	4136.862453	322.867746
4618.958111	643.639466	4136.962270	325.903441
4618.858543	633.520485	4137.062086	322.867746
4618.758975	624.413401	4137.161901	323.879645
4618.659407	613.282521	4137.261716	323.879645
4618.559840	604.175438	4137.361531	322.867746
4618.460273	596.080253	4137.461345	325.903441
4618.360706	585.961271	4137.561159	326.915339
4618.261140	579.889882	4137.660972	326.915339
4618.161574	574.830391	4137.760785	324.891543
4618.062008	568.759002	4137.860597	324.891543
4617.962443	563.699511	4137.960409	325.903441
4617.862878	559.651919	4138.060220	323.879645
4617.763313	555.604326	4138.160030	322.867746
4617.663748	553.580530	4138.259841	324.891543
4617.564184	549.532937	4138.359650	324.891543
4617.464620	545.485345	4138.459459	325.903441
4617.365057	544.473446	4138.559268	324.891543
4617.265493	539.413956	4138.659076	324.891543
4617.165930	537.390159	4138.758884	324.891543
4617.066368	535.366363	4138.858691	323.879645
4616.966805	530.306872	4138.958498	325.903441
4616.867243	528.283076	4139.058304	325.903441
4616.767682	526.259279	4139.158110	326.915339
4616.668120	522.211687	4139.257915	329.951034
4616.568559	517.152196	4139.357720	327.927237
4616.468998	514.116501	4139.457524	328.939136
4616.369438	508.045112	4139.557328	330.962932
4616.269877	503.997520	4139.657132	330.962932
4616.170317	496.914233	4139.756934	330.962932
4616.070758	488.819047	4139.856737	328.939136
4615.971198	479.711964	4139.956539	329.951034
4615.871639	468.581084	4140.056340	330.962932
4615.772081	460.485898	4140.156141	327.927237
4615.672522	451.378815	4140.255941	325.903441
4615.572964	443.283629	4140.355741	325.903441
4615.473406	433.164648	4140.455540	324.891543
4615.373849	426.081361	4140.555339	323.879645
4615.274292	417.986175	4140.655138	322.867746
4615.174735	409.890990	4140.754936	321.855848
4615.075178	401.795804	4140.854733	322.867746
4614.975622	394.712517	4140.954530	322.867746
4614.876066	389.653026	4141.054327	321.855848
4614.776510	383.581637	4141.154123	324.891543
4614.676955	378.522146	4141.253918	325.903441
4614.577400	375.486452	4141.353713	325.903441
4614.477845	371.438859	4141.453508	326.915339
4614.378291	366.379368	4141.553302	326.915339
4614.278736	364.355572	4141.653095	327.927237
4614.179183	361.319877	4141.752888	328.939136
4614.079629	356.260386	4141.852681	328.939136
4613.980076	352.212794	4141.952473	328.939136
4613.880523	349.177099	4142.052265	326.915339
4613.780970	346.141405	4142.152056	325.903441
4613.681418	344.117608	4142.251847	327.927237
4613.581866	343.105710	4142.351637	323.879645
4613.482314	341.081914	4142.451426	322.867746
4613.382763	340.070016	4142.551216	322.867746
4613.283211	342.093812	4142.651004	321.855848
4613.183660	342.093812	4142.750793	319.832052
4613.084110	342.093812	4142.850580	321.855848
4612.984560	341.081914	4142.950368	320.843950
4612.885010	342.093812	4143.050154	322.867746
4612.785460	341.081914	4143.149941	322.867746
4612.685911	340.070016	4143.249727	324.891543
4612.586362	339.058117	4143.349512	325.903441
4612.486813	337.034321	4143.449297	327.927237
4612.387265	333.998626	4143.549081	328.939136
4612.287716	331.974830	4143.648865	327.927237
4612.188169	328.939136	4143.748649	326.915339
4612.088621	324.891543	4143.848432	326.915339
4611.989074	322.867746	4143.948214	327.927237
4611.889527	316.796357	4144.047996	329.951034
4611.789980	312.748765	4144.147778	329.951034
4611.690434	307.689274	4144.247559	329.951034
4611.590888	302.629783	4144.347339	329.951034
4611.491342	295.546496	4144.447119	328.939136
4611.391796	291.498903	4144.546899	328.939136
4611.292251	283.403717	4144.646678	329.951034
4611.192706	277.332328	4144.746457	327.927237
4611.093162	267.213346	4144.846235	328.939136
4610.993618	261.141957	4144.946012	329.951034
4610.894074	253.046772	4145.045790	327.927237
4610.794530	245.963484	4145.145566	326.915339
4610.694987	240.903994	4145.245343	326.915339
4610.595444	235.844503	4145.345118	327.927237
4610.495901	232.808808	4145.444894	326.915339
4610.396358	227.749317	4145.544668	328.939136
4610.296816	223.701724	4145.644443	329.951034
4610.197274	219.654132	4145.744217	326.915339
4610.097733	218.642233	4145.843990	327.927237
4609.998191	213.582742	4145.943763	328.939136
4609.898650	210.547048	4146.043535	327.927237
4609.799110	205.487557	4146.143307	327.927237
4609.699569	201.439964	4146.243079	328.939136
4609.600029	198.404270	4146.342850	329.951034
4609.500489	194.356677	4146.442620	327.927237
4609.400950	190.309084	4146.542391	325.903441
4609.301411	184.237695	4146.642160	326.915339
4609.201872	180.190102	4146.741929	327.927237
4609.102333	178.166306	4146.841698	325.903441
4609.002795	176.142509	4146.941466	325.903441
4608.903257	173.106815	4147.041234	326.915339
4608.803719	171.083018	4147.141001	325.903441
4608.704182	172.094917	4147.240768	324.891543
4608.604645	170.071120	4147.340534	326.915339
4608.505108	167.035426	4147.440300	324.891543
4608.405571	167.035426	4147.540065	325.903441
4608.306035	163.999731	4147.639830	325.903441
4608.206499	162.987833	4147.739594	326.915339
4608.106963	160.964036	4147.839358	325.903441
4608.007428	154.892647	4147.939122	326.915339
4607.907893	152.868851	4148.038885	325.903441
4607.808358	149.833156	4148.138647	327.927237
4607.708824	146.797462	4148.238409	325.903441
4607.609289	142.749869	4148.338171	323.879645
4607.509755	140.726073	4148.437932	326.915339
4607.410222	140.726073	4148.537693	325.903441
4607.310689	138.702276	4148.637453	324.891543
4607.211156	135.666582	4148.737213	324.891543
4607.111623	136.678480	4148.836972	324.891543
4607.012090	138.702276	4148.936731	325.903441
4606.912558	136.678480	4149.036489	324.891543
4606.813026	136.678480	4149.136247	325.903441
4606.713495	136.678480	4149.236004	323.879645
4606.613964	138.702276	4149.335761	324.891543
4606.514433	135.666582	4149.435517	325.903441
4606.414902	133.642785	4149.535273	325.903441
4606.315372	133.642785	4149.635029	324.891543
4606.215842	131.618989	4149.734784	325.903441
4606.116312	128.583294	4149.834538	325.903441
4606.016782	124.535701	4149.934292	325.903441
4605.917253	121.500007	4150.034046	325.903441
4605.817724	117.452414	4150.133799	325.903441
4605.718196	114.416719	4150.233552	325.903441
4605.618667	109.357228	4150.333304	325.903441
4605.519139	105.309636	4150.433056	326.915339
4605.419611	106.321534	4150.532807	328.939136
4605.320084	101.262043	4150.632558	327.927237
4605.220557	101.262043	4150.732308	327.927237
4605.121030	99.238246	4150.832058	326.915339
4605.021503	103.285839	4150.931807	326.915339
4604.921977	102.273941	4151.031556	325.903441
4604.822451	104.297737	4151.131305	325.903441
4604.722925	103.285839	4151.231053	325.903441
4604.623400	104.297737	4151.330801	324.891543
4604.523875	103.285839	4151.430548	325.903441
4604.424350	104.297737	4151.530294	325.903441
4604.324825	103.285839	4151.630040	326.915339
4604.225301	102.273941	4151.729786	326.915339
4604.125777	101.262043	4151.829531	326.915339
4604.026254	98.226348	4151.929276	326.915339
4603.926730	96.202552	4152.029021	329.951034
4603.827207	95.190654	4152.128764	329.951034
4603.727684	94.178755	4152.228508	329.951034
4603.628162	92.154959	4152.328251	327.927237
4603.528640	93.166857	4152.427993	330.962932
4603.429118	93.166857	4152.527735	329.951034
4603.329596	96.202552	4152.627477	328.939136
4603.230075	96.202552	4152.727218	327.927237
4603.130554	99.238246	4152.826959	327.927237
4603.031033	97.214450	4152.926699	329.951034
4602.931512	102.273941	4153.026438	325.903441
4602.831992	103.285839	4153.126178	325.903441
4602.732472	105.309636	4153.225917	325.903441
4602.632952	107.333432	4153.325655	325.903441
4602.533433	110.369127	4153.425393	326.915339
4602.433914	114.416719	4153.525130	325.903441
4602.334395	116.440516	4153.624867	324.891543
4602.234877	120.488109	4153.724604	326.915339
4602.135359	124.535701	4153.824340	323.879645
4602.035841	126.559498	4153.924075	325.903441
4601.936323	131.618989	4154.023810	326.915339
4601.836806	131.618989	4154.123545	323.879645
4601.737289	132.630887	4154.223279	323.879645
4601.637772	135.666582	4154.323013	321.855848
4601.538256	136.678480	4154.422746	323.879645
4601.438739	135.666582	4154.522479	321.855848
4601.339224	135.666582	4154.622212	323.879645
4601.239708	131.618989	4154.721944	324.891543
4601.140193	131.618989	4154.821675	325.903441
4601.040678	127.571396	4154.921406	326.915339
4600.941163	127.571396	4155.021137	324.891543
4600.841648	124.535701	4155.120867	328.939136
4600.742134	122.511905	4155.220596	328.939136
4600.642620	120.488109	4155.320326	324.891543
4600.543107	119.476210	4155.420054	326.915339
4600.443593	116.440516	4155.519783	325.903441
4600.344080	117.452414	4155.619511	327.927237
4600.244568	116.440516	4155.719238	323.879645
4600.145055	113.404821	4155.818965	325.903441
4600.045543	114.416719	4155.918691	324.891543
4599.946031	112.392923	4156.018417	322.867746
4599.846520	110.369127	4156.118143	322.867746
4599.747008	106.321534	4156.217868	323.879645
4599.647497	104.297737	4156.317593	321.855848
4599.547987	100.250145	4156.417317	323.879645
4599.448476	97.214450	4156.517041	325.903441
4599.348966	92.154959	4156.616764	324.891543
4599.249456	88.107366	4156.716487	324.891543
4599.149946	84.059773	4156.816209	325.903441
4599.050437	80.012181	4156.915931	327.927237
4598.950928	76.976486	4157.015653	325.903441
4598.851419	75.964588	4157.115374	327.927237
4598.751911	74.952690	4157.215094	326.915339
4598.652403	75.964588	4157.314815	326.915339
4598.552895	75.964588	4157.414534	326.915339
4598.453387	77.988384	4157.514254	325.903441
4598.353880	79.000282	4157.613972	324.891543
4598.254373	79.000282	4157.713691	324.891543
4598.154866	79.000282	4157.813409	323.879645
4598.055359	80.012181	4157.913126	323.879645
4597.955853	80.012181	4158.012843	324.891543
4597.856347	79.000282	4158.112560	324.891543
4597.756842	76.976486	4158.212276	324.891543
4597.657336	75.964588	4158.311991	324.891543
4597.557831	70.905097	4158.411707	327.927237
4597.458327	69.893199	4158.511421	326.915339
4597.358822	67.869402	4158.611136	326.915339
4597.259318	65.845606	4158.710850	329.951034
4597.159814	61.798013	4158.810563	329.951034
4597.060310	62.809911	4158.910276	329.951034
4596.960807	58.762318	4159.009989	327.927237
4596.861304	57.750420	4159.109701	325.903441
4596.761801	58.762318	4159.209412	326.915339
4596.662298	57.750420	4159.309123	325.903441
4596.562796	54.714726	4159.408834	324.891543
4596.463294	51.679031	4159.508545	322.867746
4596.363792	50.667133	4159.608254	322.867746
4596.264291	47.631438	4159.707964	322.867746
4596.164790	43.583845	4159.807673	321.855848
4596.065289	38.524354	4159.907381	323.879645
4595.965788	35.488660	4160.007089	322.867746
4595.866288	32.452965	4160.106797	324.891543
4595.766788	28.405372	4160.206504	323.879645
4595.667288	25.369678	4160.306211	326.915339
4595.567789	22.333983	4160.405917	326.915339
4595.468290	18.286390	4160.505623	325.903441
4595.368791	16.262594	4160.605329	326.915339
4595.269292	14.238797	4160.705034	325.903441
4595.169794	11.203103	4160.804738	325.903441
4595.070296	10.191205	4160.904442	324.891543
4594.970798	7.155510	4161.004146	323.879645
4594.871301	2.096019	4161.103849	322.867746
4594.771804	-0.939676	4161.203552	320.843950
4594.672307	-4.987269	4161.303254	320.843950
4594.572810	-9.034861	4161.402956	321.855848
4594.473314	-12.070556	4161.502657	320.843950
4594.373817	-17.130047	4161.602358	321.855848
4594.274322	-22.189538	4161.702059	321.855848
4594.174826	-26.237131	4161.801759	321.855848
4594.075331	-28.260927	4161.901459	324.891543
4593.975836	-32.308520	4162.001158	324.891543
4593.876341	-32.308520	4162.100857	324.891543
4593.776847	-36.356113	4162.200555	326.915339
4593.677353	-35.344215	4162.300253	326.915339
4593.577859	-39.391808	4162.399951	328.939136
4593.478365	-37.368011	4162.499648	325.903441
4593.378872	-37.368011	4162.599344	325.903441
4593.279379	-36.356113	4162.699040	325.903441
4593.179886	-37.368011	4162.798736	325.903441
4593.080394	-34.332317	4162.898432	323.879645
4592.980901	-35.344215	4162.998126	323.879645
4592.881409	-31.296622	4163.097821	319.832052
4592.781918	-30.284724	4163.197515	320.843950
4592.682426	-29.272826	4163.297208	319.832052
4592.582935	-24.213335	4163.396901	319.832052
4592.483444	-23.201436	4163.496594	318.820154
4592.383954	-20.165742	4163.596286	320.843950
4592.284464	-19.153844	4163.695978	319.832052
4592.184974	-17.130047	4163.795670	323.879645
4592.085484	-14.094353	4163.895360	324.891543
4591.985994	-11.058658	4163.995051	325.903441
4591.886505	-12.070556	4164.094741	326.915339
4591.787016	-10.046760	4164.194431	327.927237
4591.687528	-10.046760	4164.294120	327.927237
4591.588039	-7.011065	4164.393809	327.927237
4591.488551	-7.011065	4164.493497	327.927237
4591.389064	-5.999167	4164.593185	326.915339
4591.289576	-4.987269	4164.692872	325.903441
4591.190089	-5.999167	4164.792559	326.915339
4591.090602	-5.999167	4164.892246	325.903441
4590.991115	-4.987269	4164.991932	323.879645
4590.891629	-10.046760	4165.091618	323.879645
4590.792143	-10.046760	4165.191303	320.843950
4590.692657	-12.070556	4165.290988	319.832052
4590.593171	-14.094353	4165.390672	319.832052
4590.493686	-14.094353	4165.490356	318.820154
4590.394201	-15.106251	4165.590040	320.843950
4590.294716	-16.118149	4165.689723	320.843950
4590.195232	-17.130047	4165.789406	318.820154
4590.095747	-12.070556	4165.889088	319.832052
4589.996263	-10.046760	4165.988770	321.855848
4589.896780	-5.999167	4166.088451	321.855848
4589.797296	1.084121	4166.188132	323.879645
4589.697813	8.167408	4166.287813	323.879645
4589.598330	18.286390	4166.387493	326.915339
4589.498848	25.369678	4166.487172	326.915339
4589.399365	35.488660	4166.586852	327.927237
4589.299883	42.571947	4166.686530	328.939136
4589.200402	53.702827	4166.786209	326.915339
4589.100920	57.750420	4166.885887	326.915339
4589.001439	60.786115	4166.985564	325.903441
4588.901958	64.833708	4167.085241	325.903441
4588.802477	64.833708	4167.184918	323.879645
4588.702997	65.845606	4167.284594	322.867746
4588.603517	62.809911	4167.384270	322.867746
4588.504037	57.750420	4167.483946	323.879645
4588.404557	54.714726	4167.583621	321.855848
4588.305078	47.631438	4167.683295	321.855848
4588.205599	44.595744	4167.782969	322.867746
4588.106120	38.524354	4167.882643	323.879645
4588.006642	34.476761	4167.982316	323.879645
4587.907163	31.441067	4168.081989	324.891543
4587.807686	29.417270	4168.181661	325.903441
4587.708208	29.417270	4168.281333	322.867746
4587.608730	27.393474	4168.381005	326.915339
4587.509253	29.417270	4168.480676	326.915339
4587.409776	29.417270	4168.580347	328.939136
4587.310300	32.452965	4168.680017	326.915339
4587.210823	31.441067	4168.779687	327.927237
4587.111347	31.441067	4168.879356	326.915339
4587.011872	33.464863	4168.979025	326.915339
4586.912396	32.452965	4169.078694	325.903441
4586.812921	32.452965	4169.178362	326.915339
4586.713446	30.429169	4169.278030	326.915339
4586.613971	27.393474	4169.377697	325.903441
4586.514497	21.322085	4169.477364	325.903441
4586.415022	18.286390	4169.577030	324.891543
4586.315549	14.238797	4169.676696	325.903441
4586.216075	9.179306	4169.776362	324.891543
4586.116602	0.072222	4169.876027	324.891543
4586.017128	-2.963472	4169.975692	325.903441
4585.917656	-7.011065	4170.075356	321.855848
4585.818183	-12.070556	4170.175020	323.879645
4585.718711	-15.106251	4170.274684	321.855848
4585.619239	-20.165742	4170.374347	321.855848
4585.519767	-21.177640	4170.474010	324.891543
4585.420295	-25.225233	4170.573672	322.867746
4585.320824	-26.237131	4170.673334	322.867746
4585.221353	-28.260927	4170.772995	323.879645
4585.121883	-30.284724	4170.872656	322.867746
4585.022412	-32.308520	4170.972317	323.879645
4584.922942	-34.332317	4171.071977	322.867746
4584.823472	-39.391808	4171.171636	323.879645
4584.724002	-41.415604	4171.271296	325.903441
4584.624533	-48.498892	4171.370955	323.879645
4584.525064	-51.534586	4171.470613	325.903441
4584.425595	-54.570281	4171.570271	325.903441
